#Wavenumber (cm^-1); Spectrum (K*cm*km*mol^-1); Integral (K*km*mol^-1)
0.00; 2.0420359; 2.0787044695988
1.02; 2.1486769; 4.2659648225456
2.04; 2.4612448; 6.7714058583907
3.05; 2.9587501; 9.7832857704928
4.07; 3.6096114; 13.457714376345
5.09; 4.3761552; 17.912451480232
6.11; 5.2198225; 23.226005571378
7.13; 6.1062363; 29.441890671999
8.14; 7.0093382; 36.577094472195
9.16; 7.9140006; 44.633205551852
10.18; 8.8168058; 53.608333357794
11.20; 9.7249883; 63.507951833504
12.22; 10.653794; 74.353054641041
13.23; 11.622669; 86.184430138748
14.25; 12.650755; 99.062352681865
15.27; 13.752199; 113.06149771851
16.29; 14.931821; 128.26144758355
17.31; 16.181814; 144.73383623631
18.32; 17.480305; 162.52803212075
19.34; 18.792715; 181.65820545829
20.36; 20.076689; 202.0954086711
21.38; 21.290763; 223.76848627779
22.40; 22.405933; 246.57675871629
23.41; 23.41795; 270.41522172961
24.43; 24.357033; 295.20963067888
25.45; 25.29124; 320.95502183432
26.47; 26.320505; 347.74815999014
27.48; 27.56037; 375.8034277342
28.50; 29.117454; 405.44373941757
29.52; 31.061731; 437.06324096161
30.54; 33.402723; 471.06577143095
31.56; 36.076669; 507.79026385648
32.57; 38.949368; 547.43903995414
33.59; 41.835154; 590.02542183218
34.61; 44.527711; 635.35271027721
35.63; 46.834853; 683.02856946548
36.65; 48.608443; 732.50986674871
37.66; 49.762756; 783.16620522645
38.68; 50.279096; 834.34815558933
39.70; 50.199525; 885.44910550611
40.72; 49.616003; 935.9560554364
41.74; 48.661471; 985.4913332206
42.75; 47.506184; 1033.8505789691
43.77; 46.357378; 1081.0403893802
44.79; 45.455596; 1127.3122250324
45.81; 45.059429; 1173.1807796374
46.83; 45.413435; 1219.409697168
47.84; 46.701148; 1266.9494505482
48.86; 48.993618; 1316.8228399501
49.88; 52.210176; 1369.9705461885
50.90; 56.108574; 1427.0866533858
51.92; 60.315067; 1488.4847885808
52.93; 64.392727; 1554.0338059674
53.95; 67.932613; 1623.1862749089
54.97; 70.642532; 1695.0973237899
55.99; 72.406476; 1768.8039918375
57.01; 73.295844; 1843.4159984364
58.02; 73.528938; 1918.2652839414
59.04; 73.392655; 1992.9758399193
60.06; 73.153177; 2067.4426173564
61.08; 72.985702; 2141.738912904
62.10; 72.945542; 2215.994326981
63.11; 72.986882; 2290.2918238152
64.13; 73.017557; 2364.6205456345
65.15; 72.965182; 2438.8959521752
66.17; 72.827124; 2513.0308217488
67.19; 72.684877; 2587.0208895389
68.20; 72.679058; 2661.0050345699
69.22; 72.957756; 2735.272881604
70.24; 73.621503; 2810.2163947673
71.26; 74.688543; 2886.2461090355
72.27; 76.094289; 2963.7068116227
73.29; 77.723513; 3042.8259937325
74.31; 79.459561; 3123.7123977283
75.33; 81.227946; 3206.3989412142
76.35; 83.014997; 3290.9046257066
77.36; 84.854163; 3377.2825019498
78.38; 86.787687; 3465.6286220414
79.40; 88.822881; 3556.0464822797
80.42; 90.904937; 3648.5837850276
81.44; 92.920812; 3743.1731623596
82.45; 94.734536; 3839.60883245
83.47; 96.239468; 3937.5764577406
84.49; 97.404418; 4036.7299522899
85.51; 98.291981; 4136.7869472536
86.53; 99.038603; 4237.603971599
87.54; 99.802176; 4339.198280274
88.56; 100.69723; 4441.7037140344
89.58; 101.74398; 4545.2746967988
90.60; 102.85269; 4649.9742938451
91.62; 103.85075; 4755.6898775763
92.63; 104.54281; 4862.109944576
93.65; 104.78045; 4968.7719203617
94.67; 104.51437; 5075.1630406897
95.69; 103.80887; 5180.8359865827
96.71; 102.81402; 5285.4962242497
97.72; 101.70824; 5389.0308262728
98.74; 100.63563; 5491.4735583802
99.76; 99.664622; 5592.92784284
100.78; 98.785051; 5693.4867625077
101.80; 97.944709; 5793.1902496211
102.81; 97.109415; 5892.0434433652
103.83; 96.320217; 5990.0932678736
104.85; 95.721204; 6087.5333231556
105.87; 95.542114; 6184.7910720413
106.89; 96.03722; 6282.5528183059
107.90; 97.399376; 6381.7011798207
108.92; 99.678937; 6483.1700367296
109.94; 102.73756; 6587.7524427809
110.96; 106.25621; 6695.9166805219
111.98; 109.79892; 6807.6872392058
112.99; 112.91519; 6922.6300274773
114.01; 115.25063; 7039.9501994516
115.03; 116.63218; 7158.6767252147
116.05; 117.10197; 7277.8814766698
117.07; 116.89017; 7396.8706237683
118.08; 116.33594; 7515.2955882209
119.10; 115.78173; 7633.1563909377
120.12; 115.4736; 7750.7035341131
121.14; 115.49736; 7868.2748629922
122.15; 115.76797; 7986.1216612971
123.17; 116.07237; 8104.2783278845
124.19; 116.14903; 8222.5130263066
125.21; 115.77689; 8340.3689021898
126.23; 114.84523; 8457.2763955684
127.24; 113.38406; 8572.6964719024
128.26; 111.54912; 8686.2486623434
129.28; 109.57145; 8797.787667968
130.30; 107.69189; 8907.4133667371
131.32; 106.10433; 9015.4229916734
132.33; 104.92494; 9122.2320566414
133.35; 104.19311; 9228.2961415478
134.37; 103.89609; 9334.0578827696
135.39; 104.00139; 9439.9268145066
136.41; 104.47901; 9546.2819373154
137.42; 105.30323; 9653.4760779899
138.44; 106.43471; 9761.8220221913
139.46; 107.79482; 9871.5525010323
140.48; 109.24945; 9982.7637242013
141.50; 110.61685; 10095.366900935
142.51; 111.7039; 10209.076653186
143.53; 112.36194; 10323.45626189
144.55; 112.54281; 10438.019988005
145.57; 112.33272; 10552.369847428
146.59; 111.94749; 10666.327558655
147.60; 111.68607; 10780.019156006
148.62; 111.85428; 10893.881989086
149.64; 112.68201; 11008.587414872
150.66; 114.25972; 11124.898878111
151.68; 116.51364; 11243.504739669
152.69; 119.22579; 11364.871444659
153.71; 122.09023; 11489.154031856
154.73; 124.78688; 11616.181693447
155.75; 127.05055; 11745.513675715
156.77; 128.71798; 11876.543023496
157.78; 129.74463; 12008.617456349
158.80; 130.19337; 12141.148692875
159.82; 130.204; 12273.690748378
160.84; 129.95502; 12405.979346913
161.86; 129.62744; 12537.934490698
162.87; 129.37678; 12669.634468872
163.89; 129.31588; 12801.272451645
164.91; 129.50963; 12933.107667746
165.93; 129.98121; 13065.422934373
166.94; 130.72826; 13198.498665587
167.96; 131.74483; 13332.609213949
168.98; 133.04155; 13468.039774288
170.00; 134.65455; 13605.112291648
171.02; 136.6346; 13744.200416765
172.03; 139.01462; 13885.711304141
173.05; 141.76261; 14030.019527398
174.07; 144.73695; 14177.355492221
175.09; 147.66543; 14327.672531021
176.11; 150.16574; 14480.534771255
177.12; 151.81211; 14635.072952799
178.14; 152.23593; 14790.042558929
179.16; 151.23159; 14943.989796382
180.18; 148.83286; 15095.495224884
181.20; 145.3306; 15243.435504252
182.21; 141.22156; 15387.192963214
183.23; 137.10125; 15526.756120708
184.25; 133.53405; 15662.688020874
185.27; 130.94159; 15795.98091297
186.29; 129.54234; 15927.849429013
187.30; 129.35486; 16059.527089515
188.32; 130.25252; 16192.118536792
189.34; 132.03933; 16326.52887903
190.36; 134.51208; 16463.456371537
191.38; 137.48614; 16603.411325201
192.39; 140.78349; 16746.722846637
193.41; 144.2032; 16893.515482861
194.43; 147.50497; 17043.669179433
195.45; 150.4311; 17196.801548071
196.47; 152.7718; 17352.316644578
197.48; 154.4536; 17509.543748508
198.50; 155.61176; 17667.949808027
199.52; 156.60514; 17827.367083823
200.54; 157.94955; 17988.152905688
201.56; 160.1762; 18151.205365625
202.57; 163.65466; 18317.798744781
203.59; 168.43959; 18489.262978332
204.61; 174.19928; 18666.59032883
205.63; 180.25933; 18850.086548706
206.65; 185.75636; 19039.178512479
207.66; 189.85781; 19232.445571531
208.68; 191.97978; 19427.872701659
209.70; 191.93495; 19623.254195467
210.72; 189.96615; 19816.631534997
211.74; 186.65993; 20006.643291764
212.75; 182.77358; 20192.698905541
213.77; 179.03436; 20374.948161199
214.79; 175.97373; 20554.081825326
215.81; 173.84078; 20731.044237116
216.82; 172.60837; 20906.752113055
217.84; 172.053; 21081.894639924
218.86; 171.86837; 21256.849223882
219.88; 171.76906; 21431.7027107
220.90; 171.55305; 21606.336308801
221.91; 171.11443; 21780.523411827
222.93; 170.41887; 21954.002464518
223.95; 169.46708; 22126.512636867
224.97; 168.27084; 22297.805094011
225.99; 166.85448; 22467.655758117
227.00; 165.27823; 22635.90186217
228.02; 163.66668; 22802.507481237
229.04; 162.22129; 22967.641749811
230.06; 161.20194; 23131.738371555
231.08; 160.87663; 23295.503839143
232.09; 161.45267; 23459.855689179
233.11; 163.01275; 23625.795636854
234.13; 165.47883; 23794.245944769
235.15; 168.61752; 23965.891302777
236.17; 172.08591; 24141.067328845
237.18; 175.50252; 24319.721318257
238.20; 178.52064; 24501.447625285
239.22; 180.88277; 24685.578483658
240.24; 182.44479; 24871.299403002
241.26; 183.17153; 25057.760113919
242.27; 183.1166; 25244.164913607
243.29; 182.40262; 25429.842906538
244.31; 181.21337; 25614.310297701
245.33; 179.7985; 25797.337408598
246.35; 178.47947; 25979.021809995
247.36; 177.63968; 26159.851341215
248.38; 177.68415; 26340.726135417
249.40; 178.96639; 26522.906195366
250.42; 181.69626; 26707.865146416
251.44; 185.85643; 26897.058973999
252.45; 191.15984; 27091.651442795
253.47; 197.07234; 27292.262582604
254.49; 202.90565; 27498.811779132
255.51; 207.96162; 27710.507736916
256.53; 211.68902; 27925.998029541
257.54; 213.8061; 28143.643411977
258.56; 214.35033; 28361.842799984
259.58; 213.639; 28579.318084066
260.60; 212.15287; 28795.280549544
261.61; 210.38085; 29009.439174205
262.63; 208.67642; 29221.86276079
263.65; 207.17229; 29432.755211968
264.67; 205.77981; 29642.230182885
265.69; 204.27065; 29850.168887019
266.70; 202.41064; 30056.21418543
267.72; 200.09864; 30259.905970593
268.74; 197.46176; 30460.91351972
269.76; 194.8732; 30659.286030782
270.78; 192.88396; 30855.633575148
271.79; 192.08638; 31051.169220258
272.81; 192.94854; 31247.582505839
273.83; 195.66632; 31446.762373951
274.85; 200.07501; 31650.430102718
275.87; 205.64566; 31859.768515479
276.88; 211.56934; 32075.136969902
277.90; 216.91087; 32295.942879565
278.92; 220.79776; 32520.705473996
279.94; 222.60217; 32747.304874623
280.96; 222.07609; 32973.368746404
281.97; 219.40935; 33196.717999174
282.99; 215.19593; 33415.778172557
284.01; 210.31256; 33629.867285414
285.03; 205.73236; 33839.293951074
286.05; 202.31119; 34045.238014583
287.06; 200.59311; 34249.433141172
288.08; 200.68053; 34453.717256515
289.10; 202.2036; 34659.551800614
290.12; 204.40248; 34867.624702928
291.14; 206.30951; 35077.638879496
292.15; 206.99234; 35288.348148653
293.17; 205.79966; 35497.843318609
294.19; 202.54632; 35704.026730892
295.21; 197.58611; 35905.160866506
296.23; 191.74731; 36100.351350475
297.24; 186.14213; 36289.836001518
298.26; 181.8964; 36474.998686943
299.28; 179.86962; 36658.098201329
300.30; 180.44037; 36841.778716018
301.32; 183.41528; 37028.487555462
302.33; 188.08543; 37219.950404549
303.35; 193.41239; 37416.835875086
304.37; 198.2894; 37618.685924702
305.39; 201.80315; 37824.112819264
306.41; 203.42476; 38031.190447396
307.42; 203.0828; 38237.919977297
308.44; 201.10952; 38442.640790157
309.46; 198.09021; 38644.288078711
310.48; 194.67243; 38842.456210846
311.49; 191.39804; 39037.29115616
312.51; 188.60618; 39229.284107385
313.53; 186.42495; 39419.056665073
314.55; 184.83637; 39607.212116077
315.57; 183.7743; 39794.286422574
316.58; 183.20787; 39980.784127173
317.60; 183.17432; 40167.247683061
318.62; 183.75003; 40354.297285542
319.64; 184.97626; 40542.595137986
320.66; 186.77603; 40732.725077662
321.67; 188.90275; 40925.019929594
322.69; 190.94922; 41119.397998642
323.71; 192.42196; 41315.275252658
324.73; 192.86058; 41511.598999109
325.75; 191.96399; 41707.010052296
326.76; 189.68166; 41900.097800314
327.78; 186.23926; 42089.681327816
328.80; 182.0892; 42275.040280938
329.82; 177.80084; 42456.033862749
330.84; 173.92238; 42633.079341723
331.85; 170.85398; 42807.001321125
332.87; 168.76533; 42978.797141685
333.89; 167.57631; 43149.382596881
334.91; 167.00035; 43319.381741734
335.93; 166.63324; 43489.007193546
336.94; 166.0606; 43658.049723611
337.96; 164.95498; 43825.966771986
338.98; 163.14035; 43992.036613049
340.00; 160.61263; 44155.533336542
341.02; 157.51724; 44315.879094672
342.03; 154.09616; 44472.742337345
343.05; 150.62263; 44626.069674518
344.07; 147.34349; 44776.058990178
345.09; 144.44426; 44923.097010301
346.11; 142.04391; 45067.691582579
347.12; 140.2163; 45210.425720453
348.14; 139.02599; 45351.948176116
349.16; 138.56156; 45492.9978629
350.18; 138.94958; 45634.442535077
351.20; 140.33897; 45777.301553332
352.21; 142.85558; 45922.722370122
353.23; 146.5377; 46071.891426657
354.25; 151.27189; 46225.879684678
355.27; 156.75093; 46385.445363574
356.28; 162.47199; 46550.834836526
357.30; 167.78359; 46721.631290006
358.32; 171.97721; 46896.696664171
359.34; 174.40764; 47074.236112719
360.36; 174.6178; 47251.989493288
361.37; 172.44095; 47427.526943156
362.39; 168.05683; 47598.6015488
363.41; 161.98637; 47763.496678735
364.43; 155.02172; 47921.302101226
365.45; 148.1012; 48072.06273235
366.46; 142.15033; 48216.765631989
367.48; 137.91906; 48357.161286661
368.50; 135.84812; 48495.448807987
369.52; 135.99363; 48633.884456717
370.54; 138.0286; 48774.391613151
371.55; 141.32291; 48918.252236329
372.57; 145.08531; 49065.942822832
373.59; 148.53467; 49217.144709033
374.61; 151.05982; 49370.917086523
375.63; 152.32993; 49525.982381354
376.64; 152.33094; 49681.048703947
377.66; 151.32416; 49835.090164059
378.68; 149.74462; 49987.52372307
379.70; 148.07203; 50138.254658758
380.72; 146.71132; 50287.6004485
381.73; 145.91227; 50436.13284471
382.75; 145.74166; 50584.491567718
383.77; 146.10325; 50733.218376453
384.79; 146.78795; 50882.642180418
385.81; 147.53221; 51032.823602283
386.82; 148.06799; 51183.550430326
387.84; 148.15835; 51334.369239507
388.86; 147.62252; 51484.642594071
389.88; 146.35914; 51633.629880912
390.90; 144.37279; 51780.595152328
391.91; 141.80032; 51924.941754681
392.93; 138.92428; 52066.360680834
393.95; 136.15742; 52204.96305906
394.97; 133.98694; 52341.355985712
395.99; 132.88109; 52476.623200688
397.00; 133.1764; 52612.191030054
398.02; 134.97674; 52749.591526377
399.04; 138.09727; 52890.168593141
400.06; 142.07669; 53034.796530842
401.07; 146.26119; 53183.684107352
402.09; 149.94149; 53336.318071228
403.11; 152.50684; 53491.563448542
404.13; 153.57463; 53647.895798668
405.15; 153.06221; 53803.706519234
406.16; 151.18536; 53957.606688542
407.18; 148.39001; 54108.661317508
408.20; 145.24073; 54256.510109366
409.22; 142.29804; 54401.363372988
410.24; 140.01423; 54543.891821341
411.25; 138.66682; 54685.048658284
412.27; 138.33612; 54825.868855969
413.29; 138.92265; 54967.286119861
414.31; 140.19418; 55109.997743455
415.33; 141.85115; 55254.396090923
416.34; 143.60033; 55400.575032414
417.36; 145.22684; 55548.409685819
418.38; 146.6533; 55697.696417428
419.40; 147.97298; 55848.326525044
420.42; 149.44361; 56000.453669506
421.43; 151.43426; 56154.607215612
422.45; 154.32886; 56311.707332032
423.47; 158.40483; 56472.956611678
424.49; 163.71877; 56639.615259558
425.51; 170.03576; 56812.704326019
426.52; 176.83179; 56992.711461313
427.54; 183.37943; 57179.383804845
428.56; 188.90005; 57371.675901536
429.58; 192.74224; 57567.879183579
430.60; 194.53307; 57765.905454151
431.61; 194.25435; 57963.647999182
432.63; 192.21859; 58159.318224864
433.65; 188.95248; 58351.663696547
434.67; 185.02774; 58540.013947311
435.69; 180.89779; 58724.160088564
436.70; 176.79718; 58904.131990724
437.72; 172.73758; 59079.971398186
438.74; 168.59862; 59251.59751767
439.76; 164.27593; 59418.823323239
440.78; 159.82634; 59581.519645484
441.79; 155.54968; 59739.862505238
442.81; 151.96879; 59894.560177632
443.83; 149.70677; 60046.95520906
444.85; 149.29833; 60198.934465517
445.87; 150.99848; 60352.644397916
446.88; 154.6551; 60510.076619033
447.90; 159.69257; 60672.636759303
448.92; 165.21723; 60840.820768415
449.94; 170.2164; 61014.093721748
450.95; 173.7926; 61191.007089452
451.97; 175.36541; 61369.521506162
452.99; 174.78583; 61547.445942497
454.01; 172.33735; 61722.877928349
455.03; 168.63314; 61894.539188686
456.04; 164.44833; 62061.94048822
457.06; 160.53995; 62225.363226836
458.08; 157.5034; 62385.694895683
459.10; 155.69529; 62544.185986692
460.12; 155.2274; 62702.200776511
461.13; 156.01436; 62861.016661001
462.15; 157.84576; 63021.696832506
463.17; 160.45404; 63185.032116314
464.19; 163.56101; 63351.530169581
465.21; 166.90099; 63521.428170288
466.22; 170.23061; 63694.715585464
467.24; 173.34023; 63871.168462687
468.26; 176.07639; 64050.406625969
469.28; 178.37428; 64231.983946694
470.30; 180.2878; 64415.509151477
471.31; 181.9989; 64600.776177375
472.33; 183.79181; 64787.868307758
473.35; 185.99003; 64977.19813368
474.37; 188.87034; 65169.459987417
475.39; 192.58174; 65365.499884648
476.40; 197.10119; 65566.140387817
477.42; 202.24881; 65772.020947273
478.44; 207.76504; 65983.516788549
479.46; 213.42753; 66200.776805104
480.48; 219.16609; 66423.878430377
481.49; 225.12818; 66653.049206208
482.51; 231.66; 66888.869085835
483.53; 239.19583; 67132.360123728
484.55; 248.08271; 67384.897618966
485.57; 258.39515; 67647.93273038
486.58; 269.80563; 67922.583218345
487.60; 281.56352; 68209.202733186
488.62; 292.60237; 68507.059318484
489.64; 301.75305; 68814.230903428
490.66; 308.00356; 69127.76523953
491.67; 310.7287; 69444.073644302
492.69; 309.82168; 69759.458746924
493.71; 305.69206; 70070.640076803
494.73; 299.13819; 70375.149850557
495.74; 291.14249; 70671.52034063
496.76; 282.65875; 70959.254747042
497.78; 274.45624; 71238.639356746
498.80; 267.05791; 71510.492780221
499.82; 260.77142; 71775.94683296
500.83; 255.77773; 72036.317527515
501.85; 252.22455; 72293.071238541
502.87; 250.27807; 72547.843511314
503.89; 250.11054; 72802.445250078
504.91; 251.83326; 73058.800638874
505.92; 255.40969; 73318.796686894
506.94; 260.5928; 73584.068912842
507.96; 266.91982; 73855.781767297
508.98; 273.77399; 74134.471877296
510.00; 280.49539; 74420.004084562
511.01; 286.50432; 74711.653116101
512.03; 291.39766; 75008.283355599
513.05; 294.99103; 75308.571491933
514.07; 297.3012; 75611.211282315
515.09; 298.48487; 75915.055997921
516.10; 298.76252; 76219.183348136
517.12; 298.35588; 76522.896761549
518.14; 297.45642; 76825.694562517
519.16; 296.22591; 77127.239759759
520.18; 294.81656; 77427.350300727
521.19; 293.39195; 77726.01064133
522.21; 292.13317; 78023.389601848
523.23; 291.2242; 78319.843270401
524.25; 290.82117; 78615.88667217
525.27; 291.01823; 78912.130673493
526.28; 291.82416; 79209.195076772
527.30; 293.15992; 79507.619220759
528.32; 294.87982; 79807.794157927
529.34; 296.81133; 80109.935287601
530.36; 298.80248; 80414.103314184
531.37; 300.76381; 80720.267896822
532.39; 302.69246; 81028.395754272
533.41; 304.66958; 81338.536236468
534.43; 306.82898; 81650.874902886
535.45; 309.30221; 81965.731210128
536.46; 312.15392; 82283.490433795
537.48; 315.32778; 82604.480507111
538.50; 318.62456; 82928.826560738
539.52; 321.72825; 83256.332037626
540.54; 324.28227; 83586.437396106
541.55; 325.99941; 83918.290728581
542.57; 326.77208; 84250.930603105
543.59; 326.74144; 84583.539293354
544.61; 326.29087; 84915.689322111
545.62; 325.95121; 85247.493593294
546.64; 326.2372; 85579.588982788
547.66; 327.46408; 85912.933284264
548.68; 329.60916; 86248.461188345
549.70; 332.2752; 86586.703002814
550.71; 334.78165; 86927.496277497
551.73; 336.36481; 87269.901143322
552.75; 336.42517; 87612.36745181
553.77; 334.7374; 87953.115678137
554.79; 331.54588; 88290.615074808
555.80; 327.50611; 88624.002163423
556.82; 323.48678; 88953.297744348
557.84; 320.29843; 89279.347727318
558.86; 318.44229; 89603.508233033
559.88; 317.96504; 89927.182919133
560.89; 318.46558; 90251.367135846
561.91; 319.24244; 90576.342165742
562.93; 319.51987; 90901.599608757
563.95; 318.66615; 91225.988001004
564.97; 316.32936; 91547.997635066
565.98; 312.45749; 91866.065873094
567.00; 307.22274; 92178.805367621
568.02; 300.90994; 92485.118698824
569.04; 293.83857; 92784.233684539
570.06; 286.36247; 93075.738322588
571.07; 278.94213; 93359.689369263
572.09; 272.23605; 93636.813921952
573.11; 267.13302; 93908.743807446
574.13; 264.66118; 94178.157468902
575.15; 265.76032; 94448.690004002
576.16; 270.96984; 94724.52561049
577.18; 280.13907; 95009.695094307
578.20; 292.28153; 95307.225080249
579.22; 305.66064; 95618.374417542
580.24; 318.11876; 95942.205587132
581.25; 327.57299; 96275.660750661
582.27; 332.53262; 96614.164610313
583.29; 332.47449; 96952.609299164
584.31; 327.95188; 97286.450161663
