#Wavenumber (cm^-1);  Spectrum at 400.00 K (cm*km*mol^-1);  Integral (km*mol^-1)
0.00; 6.8178648E-05; 6.9402921544514E-05
1.02; 7.2293046E-05; 0.0001429941232888
2.04; 8.4326075E-05; 0.00022883442860313
3.05; 0.0001034245; 0.00033411610955515
4.07; 0.00012840936; 0.00046483129416235
5.09; 0.00015808915; 0.00062575922720195
6.11; 0.00019159607; 0.00082079576237525
7.13; 0.0002286519; 0.0010535535332055
8.14; 0.00026967074; 0.0013280667090127
9.16; 0.00031563694; 0.0016493714905672
10.18; 0.00036775865; 0.0020237339226045
11.20; 0.00042697535; 0.002458376407094
12.22; 0.00049346439; 0.0029607018643244
13.23; 0.00056631669; 0.0035371878214662
14.25; 0.00064351751; 0.0041922608826598
15.27; 0.00072227712; 0.0049275078249492
16.29; 0.00079963767; 0.0057415044704723
17.31; 0.00087317972; 0.0066303637474464
18.32; 0.00094160725; 0.007588879293043
19.34; 0.0010050258; 0.008611952236471
20.36; 0.0010648346; 0.0096959079523076
21.38; 0.0011232886; 0.010839367244379
22.40; 0.001182899; 0.012043507397183
23.41; 0.001245881; 0.01331176044655
24.43; 0.0013138073; 0.014649159536843
25.45; 0.0013875175; 0.016061592483138
26.47; 0.0014672027; 0.017555141550168
27.48; 0.0015525092; 0.019135528872084
28.50; 0.0016425151; 0.020807538344891
29.52; 0.0017355346; 0.022574237660702
30.54; 0.0018288457; 0.02443592362042
31.56; 0.0019185572; 0.02638893207177
32.57; 0.0019998509; 0.028424694024023
33.59; 0.0020677298; 0.030529553732227
34.61; 0.0021182009; 0.03268579088533
35.63; 0.0021495934; 0.034873984219149
36.65; 0.002163562; 0.037076396928265
37.66; 0.0021653375; 0.039280617069615
38.68; 0.0021629776; 0.041482434905597
39.70; 0.0021656939; 0.043687017867001
40.72; 0.0021816775; 0.045907871440384
41.74; 0.0022160682; 0.048163733251619
42.75; 0.0022697267; 0.050474217134316
43.77; 0.0023392362; 0.052855458606159
44.79; 0.0024181568; 0.055317037904586
45.81; 0.0024991263; 0.057861040600789
46.83; 0.0025760937; 0.060483392791946
47.84; 0.0026459281; 0.063176833421971
48.86; 0.0027088676; 0.065934343788846
49.88; 0.0027677037; 0.068751746690587
50.90; 0.002826063; 0.071628556873296
51.92; 0.0028864826; 0.074566871645891
52.93; 0.0029490395; 0.077568866590439
53.95; 0.003011073; 0.080634009019817
54.97; 0.0030681079; 0.083757210466683
55.99; 0.0031156097; 0.086928766716413
57.01; 0.0031508764; 0.090136222924616
58.02; 0.0031743028; 0.093367526210329
59.04; 0.0031894891; 0.09661428846983
60.06; 0.0032021005; 0.099873888623584
61.08; 0.0032178662; 0.10314953755763
62.10; 0.0032404421; 0.1064481677868
63.11; 0.0032699352; 0.10977682066636
64.13; 0.0033026607; 0.11313878672281
65.15; 0.0033322691; 0.11653089292129
66.17; 0.0033518877; 0.11994297000157
67.19; 0.0033565557; 0.12335979883529
68.20; 0.0033451184; 0.12676498506672
69.22; 0.0033209248; 0.13014554317623
70.24; 0.0032910753; 0.13349571579831
71.26; 0.0032644625; 0.13681879777924
72.27; 0.003249247; 0.14012639097662
73.29; 0.0032505978; 0.14343535926937
74.31; 0.003269429; 0.14676349693092
75.33; 0.0033025178; 0.15012531758558
76.35; 0.0033439221; 0.1535292860147
77.36; 0.0033871754; 0.15697728437857
78.38; 0.0034274806; 0.16046631177627
79.40; 0.0034631351; 0.16399163384978
80.42; 0.0034956914; 0.16755009687185
81.44; 0.0035288109; 0.17114227405068
82.45; 0.0035662293; 0.17477254157484
83.47; 0.0036095864; 0.17844694473287
84.49; 0.0036569364; 0.18216954822279
85.51; 0.0037025423; 0.18593857652913
86.53; 0.0037381157; 0.18974381700665
87.54; 0.0037551591; 0.19356640697881
88.56; 0.0037476604; 0.19738136358798
89.58; 0.0037142362; 0.20116229576457
90.60; 0.0036589783; 0.2048869777616
91.62; 0.0035906759; 0.20854213083782
92.63; 0.0035206265; 0.21212597669607
93.65; 0.0034597224; 0.21564782480714
94.67; 0.0034157371; 0.21912489777042
95.69; 0.0033916588; 0.22257746011521
96.71; 0.0033855476; 0.22602380152466
97.72; 0.0033918668; 0.22947657554047
98.74; 0.0034037452; 0.23294144127087
99.76; 0.0034153385; 0.23641810850362
100.78; 0.0034234721; 0.23990305539056
101.80; 0.0034280548; 0.24339266728858
102.81; 0.0034312274; 0.24688550867379
103.83; 0.0034356766; 0.25038287917778
104.85; 0.0034428369; 0.25388753862056
105.87; 0.0034517117; 0.25740123215961
106.89; 0.0034587876; 0.26092212867494
107.90; 0.0034590902; 0.26444333319721
108.92; 0.0034479938; 0.26795324209066
109.94; 0.0034231217; 0.27143783230078
110.96; 0.0033856372; 0.27488426487928
111.98; 0.0033404432; 0.27828469190928
112.99; 0.0032951868; 0.28163904990878
114.01; 0.0032583647; 0.28495592459703
115.03; 0.00323711; 0.28825116292276
116.05; 0.0032353204; 0.2915445795186
117.07; 0.0032526494; 0.29485563621597
118.08; 0.003284593; 0.29819921015148
119.10; 0.0033235739; 0.30158246491623
120.12; 0.0033606584; 0.30500347011943
121.14; 0.0033874252; 0.30845172276218
122.15; 0.0033975374; 0.31191026924138
123.17; 0.0033877262; 0.31535882834358
124.19; 0.0033580887; 0.31877721775479
125.21; 0.0033117736; 0.3221484603644
126.23; 0.0032542222; 0.32546111811322
127.24; 0.0031921532; 0.32871059232844
128.26; 0.0031324504; 0.3318992916554
129.28; 0.0030810765; 0.33503569454957
130.30; 0.0030421237; 0.33813244523382
131.32; 0.003017122; 0.34120374522263
132.33; 0.0030047376; 0.34426243848251
133.35; 0.0030009773; 0.34731730385089
134.37; 0.0029999335; 0.35037110665699
135.39; 0.0029949836; 0.35341987076289
136.41; 0.0029802119; 0.35645359787962
137.42; 0.0029517232; 0.35945832474549
138.44; 0.0029085107; 0.36241906312345
139.46; 0.0028526379; 0.36532292545248
140.48; 0.0027886882; 0.36816168967233
141.50; 0.0027226475; 0.3709332273468
142.51; 0.0026605564; 0.37364155892792
143.53; 0.0026073174; 0.37629569555947
144.55; 0.0025659718; 0.37890774410919
145.57; 0.0025375764; 0.38149088737917
146.59; 0.0025216034; 0.38405777080376
147.60; 0.0025166166; 0.38661957789264
148.62; 0.0025209212; 0.38918576684644
149.64; 0.0025329428; 0.39176419329135
150.66; 0.0025512429; 0.39436124845854
151.68; 0.0025742472; 0.39698172099531
152.69; 0.0025998884; 0.3996282951655
153.71; 0.0026253939; 0.40230083285679
154.73; 0.0026473794; 0.40499575082556
155.75; 0.0026622758; 0.40770583273897
156.77; 0.0026669779; 0.41042070111733
157.78; 0.0026595092; 0.41312796669598
158.80; 0.0026394897; 0.41581485334058
159.82; 0.0026082552; 0.41846994457614
160.84; 0.0025685925; 0.42108466086843
161.86; 0.0025241713; 0.42365415829199
162.87; 0.0024788327; 0.42617750304051
163.89; 0.0024359209; 0.42865716539086
164.91; 0.0023978128; 0.43109803539686
165.93; 0.0023657362; 0.43350625274008
166.94; 0.0023398816; 0.43588815120829
167.96; 0.0023197459; 0.43824955247925
168.98; 0.0023045914; 0.44059552703211
170.00; 0.0022938839; 0.44293060186962
171.02; 0.0022875871; 0.44525926679831
172.03; 0.0022862226; 0.44758654277424
173.05; 0.0022906745; 0.44991835060793
174.07; 0.0023017841; 0.45226146753065
175.09; 0.0023198515; 0.45462297622932
176.11; 0.0023441982; 0.45700926883671
177.12; 0.002372944; 0.45942482347646
178.14; 0.0024030996; 0.46187107521925
179.16; 0.0024309922; 0.46434572034919
180.18; 0.0024529447; 0.46684271219984
181.20; 0.0024660545; 0.46935304924545
182.21; 0.0024688842; 0.47186626677896
183.23; 0.0024619006; 0.47437237534317
184.25; 0.002447558; 0.47686388376971
185.27; 0.0024300008; 0.4793375197128
186.29; 0.002414433; 0.48179530833458
187.30; 0.0024062511; 0.4842447680706
188.32; 0.0024100642; 0.48669810942567
189.34; 0.0024287455; 0.48917046756629
190.36; 0.0024626714; 0.4916773607482
191.38; 0.0025093199; 0.49423174016607
192.39; 0.0025633893; 0.49684115982125
193.41; 0.0026175361; 0.49950569866463
194.43; 0.0026637164; 0.50221724698655
195.45; 0.002694933; 0.50496057246043
196.47; 0.0027070216; 0.50771620358721
197.48; 0.0026999899; 0.51046467681051
198.50; 0.0026784513; 0.51319122461308
199.52; 0.0026508777; 0.51588970368104
200.54; 0.0026277234; 0.5185646127214
201.56; 0.0026188342; 0.52123047289741
202.57; 0.0026308395; 0.52390855396574
203.59; 0.0026653069; 0.5266217213278
204.61; 0.0027182597; 0.52938879235708
205.63; 0.0027812655; 0.53222000059613
206.65; 0.0028438092; 0.5351148755988
207.66; 0.002896246; 0.53806312900851
208.68; 0.0029324376; 0.54104822397162
209.70; 0.0029512819; 0.54405250157451
210.72; 0.0029567205; 0.54706231546754
211.74; 0.0029563168; 0.55007171843123
212.75; 0.0029589488; 0.55308380062585
213.77; 0.0029724078; 0.55610958350997
214.79; 0.003001649; 0.55916513267897
215.81; 0.0030481413; 0.5622680089528
216.82; 0.0031103408; 0.56543420168409
217.84; 0.0031849295; 0.5686763224442
218.86; 0.0032682516; 0.57200326156922
219.88; 0.0033574121; 0.57542096221977
220.90; 0.0034507171; 0.57893364333537
221.91; 0.0035474435; 0.58254478774323
222.93; 0.0036471772; 0.58625745679239
223.95; 0.0037490782; 0.59007385664099
224.97; 0.0038513851; 0.59399440051256
225.99; 0.0039513184; 0.59801667216379
227.00; 0.0040453592; 0.60213467331196
228.02; 0.0041297579; 0.60633858866817
229.04; 0.0042010952; 0.61061512229751
230.06; 0.0042567686; 0.61494832904
231.08; 0.0042953535; 0.61932081351433
232.09; 0.0043168402; 0.6237151705719
233.11; 0.0043227486; 0.62811554206837
234.13; 0.0043160817; 0.63250912700237
235.15; 0.0043010504; 0.63688741074591
236.17; 0.0042825128; 0.64124682395407
237.18; 0.0042651555; 0.64558856818336
238.20; 0.0042525615; 0.64991749231927
239.22; 0.0042464083; 0.65424015270045
240.24; 0.0042460625; 0.65856246108522
241.26; 0.004248754; 0.66288750930546
242.27; 0.0042503366; 0.66721416850993
243.29; 0.0042464483; 0.67153686964686
244.31; 0.0042337423; 0.67584663658252
245.33; 0.0042108308; 0.68013308062569
246.35; 0.0041786867; 0.68438680334135
247.36; 0.0041404266; 0.68860157894483
248.38; 0.0041005948; 0.6927758075095
249.40; 0.0040641929; 0.69691298046218
250.42; 0.0040357264; 0.70102117576801
251.44; 0.0040184727; 0.70511180760476
252.45; 0.0040140622; 0.7091979497279
253.47; 0.0040223698; 0.71329254856658
254.49; 0.0040416705; 0.71740679470331
255.51; 0.0040690195; 0.72154888095645
256.53; 0.0041008372; 0.72572335622309
257.54; 0.0041336714; 0.7299312553035
258.56; 0.0041650456; 0.73417109200749
259.58; 0.0041942048; 0.73844061146284
260.60; 0.0042224966; 0.74273893083134
261.61; 0.004253142; 0.74706844582781
262.63; 0.0042902855; 0.75143577130403
263.65; 0.0043374654; 0.75585112391139
264.67; 0.0043959056; 0.76032596611289
265.69; 0.0044632081; 0.76486931933448
266.70; 0.0045330076; 0.76948372550781
267.72; 0.0045959091; 0.77416216264952
268.74; 0.0046416202; 0.77888713175327
269.76; 0.004661755; 0.78363259716699
270.78; 0.0046524763; 0.78836861723729
271.79; 0.0046161076; 0.79306761554181
272.81; 0.0045611065; 0.79771062510345
273.83; 0.0045002875; 0.80229172357514
274.85; 0.0044477433; 0.80681933432801
275.87; 0.0044153449; 0.81131396489418
276.88; 0.0044098492; 0.81580300106423
277.90; 0.0044314513; 0.8203140272664
278.92; 0.0044741554; 0.82486852436098
279.94; 0.004527764; 0.82947759274273
280.96; 0.0045808016; 0.83414065110973
281.97; 0.0046234486; 0.83884712228703
282.99; 0.0046496424; 0.8435802576223
284.01; 0.0046578452; 0.84832174299809
285.03; 0.0046504536; 0.85305570409298
286.05; 0.0046322564; 0.85777114120495
287.06; 0.0046085867; 0.86246248354783
288.08; 0.004583809; 0.86712860335696
289.10; 0.0045605523; 0.87177104879897
290.12; 0.0045397613; 0.87639232990929
291.14; 0.004521333; 0.88099485181896
292.15; 0.0045049298; 0.88558067600318
293.17; 0.0044905784; 0.89015189106985
294.19; 0.0044788289; 0.89471114565134
295.21; 0.0044704822; 0.89926190366256
296.23; 0.0044660869; 0.90380818740455
297.24; 0.004465487; 0.90835386044546
298.26; 0.0044676484; 0.91290173374014
299.28; 0.0044708429; 0.91745285891322
300.30; 0.0044731013; 0.92200628299729
301.32; 0.0044727383; 0.92655933756364
302.33; 0.004468742; 0.9311083241295
303.35; 0.0044609043; 0.93564933225121
304.37; 0.0044496973; 0.94017893210677
305.39; 0.0044360093; 0.94469459811917
306.41; 0.0044208886; 0.94919487189545
307.42; 0.0044053988; 0.95367937778592
308.44; 0.004390592; 0.95814881102791
309.46; 0.0043775154; 0.96260493279393
310.48; 0.0043671353; 0.9670504880485
311.49; 0.0043601099; 0.97148889182137
312.51; 0.0043564457; 0.9759235655263
313.53; 0.0043551781; 0.98035694893377
314.55; 0.0043542666; 0.98478940442754
315.57; 0.0043508394; 0.9892183711442
316.58; 0.0043417955; 0.99363813157901
317.60; 0.0043246055; 0.99804039331988
318.62; 0.0042980405; 1.0024156131156
319.64; 0.0042625561; 1.0067547113366
320.66; 0.0042201759; 1.0110506682472
321.67; 0.0041739216; 1.0152995403434
322.69; 0.0041270292; 1.0195006779562
323.71; 0.0040822813; 1.0236562641749
324.73; 0.0040417353; 1.0277705763066
325.75; 0.0040069278; 1.0318494558975
326.76; 0.0039793921; 1.0359003052869
327.78; 0.0039611333; 1.0399325680233
328.80; 0.0039546757; 1.0439582572125
329.82; 0.0039624544; 1.0479918647761
330.84; 0.0039856242; 1.0520490582411
331.85; 0.0040226764; 1.0561439692769
332.87; 0.0040684479; 1.0602854736498
333.89; 0.0041140754; 1.0644734248811
334.91; 0.0041481754; 1.0686960884372
335.93; 0.0041591004; 1.0729298731394
336.94; 0.0041377033; 1.0771418765299
337.96; 0.0040797904; 1.0812949270765
338.98; 0.0039874753; 1.0853540048301
340.00; 0.0038689632; 1.0892924424472
341.02; 0.0037367862; 1.0930963295829
342.03; 0.0036050003; 1.0967660643285
343.05; 0.0034861691; 1.1003148340194
344.07; 0.0033889835; 1.1037646730209
345.09; 0.0033171099; 1.1071413477982
346.11; 0.0032694237; 1.1104694800911
347.12; 0.0032413433; 1.1137690276584
348.14; 0.0032266814; 1.1170536500886
349.16; 0.0032193763; 1.1203308362147
350.18; 0.0032146307; 1.1236031915603
351.20; 0.0032092938; 1.1268701141916
352.21; 0.0032016191; 1.1301292242396
353.23; 0.0031907187; 1.1333772382079
354.25; 0.0031760535; 1.1366103236633
355.27; 0.0031571716; 1.1398241881583
356.28; 0.0031337255; 1.1430141854925
357.30; 0.0031056427; 1.1461755957125
358.32; 0.0030732693; 1.1493040512183
359.34; 0.0030373563; 1.152395948905
360.36; 0.0029988746; 1.1554486738418
361.37; 0.0029587572; 1.1584605609911
362.39; 0.0029177212; 1.1614306752212
363.41; 0.0028762858; 1.1643586100122
364.43; 0.002835008; 1.167244525848
365.45; 0.002794843; 1.1700895554586
366.46; 0.0027574644; 1.1728965352506
367.48; 0.0027253801; 1.1756708545442
368.50; 0.0027017497; 1.1784211191798
369.52; 0.0026899212; 1.1811593428922
370.54; 0.0026928028; 1.183900499989
371.55; 0.0027122439; 1.1866614472544
372.57; 0.0027485828; 1.1894593859263
373.59; 0.0028004588; 1.1923101321192
374.61; 0.0028648978; 1.1952264744973
375.63; 0.0029376121; 1.198216836875
376.64; 0.0030134238; 1.2012843723047
377.66; 0.0030867401; 1.2044265405207
378.68; 0.0031520502; 1.2076351915966
379.70; 0.0032044602; 1.2108971938071
380.72; 0.0032402915; 1.2141956706988
381.73; 0.0032577333; 1.2175119026555
382.75; 0.0032574641; 1.2208278605211
383.77; 0.0032430679; 1.224129163676
384.79; 0.0032210264; 1.227408029537
385.81; 0.0032000934; 1.2306655865093
386.82; 0.0031899896; 1.2339128583133
387.84; 0.0031995625; 1.2371698748211
388.86; 0.0032347807; 1.2404627420279
389.88; 0.0032970955; 1.2438190429657
390.90; 0.0033827055; 1.2472624912419
391.91; 0.0034830909; 1.2508081275029
392.93; 0.003586836; 1.254459371726
393.95; 0.0036823589; 1.258207854171
394.97; 0.0037608333; 1.2620362202264
395.99; 0.0038184615; 1.2659232492699
397.00; 0.0038574108; 1.269849926977
398.02; 0.0038851261; 1.2738048176649
399.04; 0.003912253; 1.2777873224133
400.06; 0.0039498661; 1.2818081156366
401.07; 0.0040069188; 1.2858869860878
402.09; 0.0040887255; 1.2900491322266
403.11; 0.0041968773; 1.294321372237
404.13; 0.0043304396; 1.2987295728449
405.15; 0.0044877826; 1.3032979418883
406.16; 0.0046681611; 1.3080499284464
407.18; 0.0048722734; 1.3130096925549
408.20; 0.0051014675; 1.3182027662942
409.22; 0.0053558449; 1.3236547853072
410.24; 0.0056320309; 1.3293879497023
411.25; 0.0059216098; 1.3354158929556
412.27; 0.0062110837; 1.3417385081269
413.29; 0.0064837154; 1.3483386506001
414.31; 0.0067229482; 1.3551823217176
415.33; 0.0069164743; 1.3622229941413
416.34; 0.0070596881; 1.3694094519417
417.36; 0.007157333; 1.3766953081098
418.38; 0.007222645; 1.3840476490528
419.40; 0.0072740469; 1.3914523148603
420.42; 0.0073302444; 1.3989141873772
421.43; 0.0074051308; 1.4064522909873
422.45; 0.0075040371; 1.4140910769349
423.47; 0.0076225036; 1.4218504566418
424.49; 0.0077479802; 1.4297375661118
425.51; 0.0078639389; 1.4377427165894
426.52; 0.0079550974; 1.4458406624986
427.54; 0.0080120868; 1.4539966211626
428.56; 0.0080340899; 1.4621749779896
429.58; 0.0080286731; 1.4703478207392
430.60; 0.008009003; 1.4785006401493
431.61; 0.0079895276; 1.4866336344436
432.63; 0.0079816948; 1.494758655307
433.65; 0.0079911939; 1.5028933458286
434.67; 0.0080175869; 1.5110549033458
435.69; 0.008056293; 1.5192558619864
436.70; 0.0081020521; 1.5275034014323
437.72; 0.0081525436; 1.53580233907
438.74; 0.0082109055; 1.544160686592
439.76; 0.0082864169; 1.5525959014104
440.78; 0.0083933103; 1.561139929094
441.79; 0.0085482665; 1.5698416955105
442.81; 0.0087674012; 1.578766531652
443.83; 0.009063456; 1.5879927387727
444.85; 0.0094436023; 1.5976059184317
445.87; 0.0099079897; 1.6076918244444
446.88; 0.010449076; 1.6183285330532
447.90; 0.01105188; 1.6295788700948
448.92; 0.011695432; 1.641484315624
449.94; 0.012355657; 1.6540618412764
450.95; 0.013009555; 1.6673050068278
451.97; 0.013639971; 1.6811899086033
452.99; 0.014239667; 1.6956852752816
454.01; 0.014813274; 1.7107645486114
455.03; 0.015376149; 1.7264168049584
456.04; 0.015950224; 1.7426534449607
457.06; 0.016558114; 1.759508890351
458.08; 0.017217631; 1.7770356953362
459.10; 0.017938819; 1.7952966394462
460.12; 0.018724656; 1.8143575315981
461.13; 0.019574954; 1.8342839905757
462.15; 0.020491515; 1.8551434682381
463.17; 0.021481897; 1.8770111126009
464.19; 0.022559809; 1.899976024512
465.21; 0.023741818; 1.9241441707054
466.22; 0.025042195; 1.9496360448455
467.24; 0.026469098; 1.9765804447808
468.26; 0.028025264; 2.0051089542897
469.28; 0.029714654; 2.0353571896687
470.30; 0.031553734; 2.0674775292974
471.31; 0.033583463; 2.1016640452141
472.33; 0.035876872; 2.1381851527615
473.35; 0.038538119; 2.1774152948362
474.37; 0.04169184; 2.2198557889735
475.39; 0.045465439; 2.2661376435877
476.40; 0.049969944; 2.3170048901416
477.42; 0.055285877; 2.3732835271464
478.44; 0.06145858; 2.4358457100332
479.46; 0.068503354; 2.505579168332
480.48; 0.0764161; 2.5833674604474
481.49; 0.085182014; 2.6700790747135
482.51; 0.094774656; 2.7665555844756
483.53; 0.10514091; 2.8735844951669
484.55; 0.11617296; 2.991843551473
485.57; 0.1276744; 3.1218105787144
486.58; 0.13933206; 3.2636446079329
487.60; 0.15070574; 3.4170565484242
488.62; 0.16124495; 3.5811969506727
489.64; 0.17033554; 3.754591178961
490.66; 0.17737096; 3.9351471613697
491.67; 0.18183626; 4.1202486232324
492.69; 0.1833884; 4.3069300984013
493.71; 0.18191619; 4.4921129323478
494.73; 0.17756645; 4.6728679160072
495.74; 0.17072957; 4.8466632530457
496.76; 0.16198591; 5.0115579190213
497.78; 0.15202225; 5.1663100070578
498.80; 0.14153403; 5.3103855414718
499.82; 0.131132; 5.4438722605267
500.83; 0.12127109; 5.5673209962571
501.85; 0.11221446; 5.681550474607
502.87; 0.10403783; 5.7874564952132
503.89; 0.096669797; 5.8858621772293
504.91; 0.08995575; 5.9774332484773
505.92; 0.083727733; 6.0626644674087
506.94; 0.077862368; 6.141924997942
507.96; 0.072313392; 6.2155369106203
508.98; 0.067113572; 6.283855630896
510.00; 0.062349977; 6.3473252168756
511.01; 0.058124038; 6.4064929798817
512.03; 0.054511133; 6.461982961105
513.05; 0.051532727; 6.5144410535325
514.07; 0.04914832; 6.5644719227253
515.09; 0.047266816; 6.6125875019739
516.10; 0.045770389; 6.6591797827964
517.12; 0.044540683; 6.7045202764866
518.14; 0.043478138; 6.7487791448914
519.16; 0.042509523; 6.7920520053223
520.18; 0.041584373; 6.8343831022707
521.19; 0.040665424; 6.8757787494026
522.21; 0.039719776; 6.9162117677569
523.23; 0.038715822; 6.9556228040862
524.25; 0.037627241; 6.9939257121836
525.27; 0.0364413; 7.031021383437
526.28; 0.03516634; 7.0668192000095
527.30; 0.033833614; 7.1012603588414
528.32; 0.032491308; 7.13433510813
529.34; 0.031192283; 7.1660875062416
