#Wavenumber (cm^-1);  Spectrum at 400.00 K (cm*km*mol^-1);  Integral (km*mol^-1)
0.00; 0.0037280888; 0.0037950335616669
1.02; 0.0038279334; 0.0076917045297187
2.04; 0.0041189618; 0.011884629914487
3.05; 0.0045769228; 0.016543739821088
4.07; 0.0051654668; 0.021801962145026
5.09; 0.0058417307; 0.027748591953188
6.11; 0.0065630676; 0.034429511523449
7.13; 0.0072937863; 0.041854271209895
8.14; 0.0080105208; 0.050008635746815
9.16; 0.0087048517; 0.058869799115582
10.18; 0.0093821972; 0.068420471042857
11.20; 0.010056826; 0.07865788550598
12.22; 0.010743983; 0.089594796435329
13.23; 0.011451278; 0.10125170328077
14.25; 0.012172152; 0.11364242869786
15.27; 0.012884083; 0.1267578693409
16.29; 0.013552958; 0.14055419588015
17.31; 0.014142993; 0.15495115199103
18.32; 0.014629354; 0.16984320288172
19.34; 0.015009091; 0.18512181026618
20.36; 0.015305898; 0.20070255437334
21.38; 0.015565929; 0.21654799846797
22.40; 0.015844997; 0.23267752123271
23.41; 0.016190925; 0.24915918386909
24.43; 0.016627254; 0.26608501122208
25.45; 0.017144758; 0.28353763502198
26.47; 0.01770489; 0.30156044880369
27.48; 0.018255022; 0.32014327311118
28.50; 0.018750615; 0.33923058966825
29.52; 0.019176213; 0.35875114657939
30.54; 0.019556813; 0.37865913786366
31.56; 0.019954167; 0.39897161833706
32.57; 0.020447998; 0.4197867975488
33.59; 0.02110799; 0.44127382101078
34.61; 0.021966435; 0.46363470425131
35.63; 0.023001858; 0.48704960333422
36.65; 0.024140467; 0.51162355677511
37.66; 0.025275938; 0.53735337120447
38.68; 0.026301293; 0.56412695239865
39.70; 0.027141906; 0.59175624118199
40.72; 0.027777969; 0.62003301458208
41.74; 0.028248278; 0.64878854275123
42.75; 0.028633823; 0.67793653898425
43.77; 0.029026844; 0.70748461405117
44.79; 0.029496182; 0.7375104547945
45.81; 0.030060947; 0.76811120157167
46.83; 0.030681479; 0.79934362321793
47.84; 0.031270394; 0.83117553543935
48.86; 0.031719552; 0.86346467080361
49.88; 0.031933521; 0.8959716171361
50.90; 0.031858337; 0.92840202940473
51.92; 0.031496466; 0.96046407217244
52.93; 0.030903961; 0.99192297071403
53.95; 0.030171919; 1.0226366827011
54.97; 0.029399312; 1.0525639134698
55.99; 0.028666555; 1.0817452296724
57.01; 0.028018217; 1.1102665652753
58.02; 0.027459588; 1.1382192414172
59.04; 0.026966967; 1.1656704501108
60.06; 0.026506975; 1.19265340732
61.08; 0.026057589; 1.2191789084917
62.10; 0.025623357; 1.2452623799924
63.11; 0.025239547; 1.2709551493627
64.13; 0.024963736; 1.2963671549465
65.15; 0.024857522; 1.3216710401412
66.17; 0.0249643; 1.3470836203109
67.19; 0.025290447; 1.3728282043222
68.20; 0.025796485; 1.3990879133161
69.22; 0.026401889; 1.4259638973693
70.24; 0.027003142; 1.4534519307844
71.26; 0.027500426; 1.4814461773607
72.27; 0.027825311; 1.5097711435599
73.29; 0.02796095; 1.5382341840302
74.31; 0.027947989; 1.5666840312439
75.33; 0.027873439; 1.5950579890699
76.35; 0.027844865; 1.6234028600417
77.36; 0.027957099; 1.6518619807409
78.38; 0.028261456; 1.6806309237087
79.40; 0.028747267; 1.709894400637
80.42; 0.029342136; 1.7397634292263
81.44; 0.029931677; 1.7702325852082
82.45; 0.030393248; 1.8011716000383
83.47; 0.030633518; 1.8323551992916
84.49; 0.030618089; 1.8635230925897
85.51; 0.030383594; 1.8944522804437
86.53; 0.030028095; 1.9250195858906
87.54; 0.029682478; 1.9552350679287
88.56; 0.029471669; 1.9852359553137
89.58; 0.029477815; 2.0152430987851
90.60; 0.029716952; 2.0454936735242
91.62; 0.030136328; 2.0761711547795
92.63; 0.030632865; 2.1073540891903
93.65; 0.031086489; 2.138998794014
94.67; 0.031397413; 2.1709600051814
95.69; 0.031515428; 2.2030413507135
96.71; 0.031452175; 2.2350583071916
97.72; 0.031273045; 2.2668929178215
98.74; 0.03107207; 2.2985229440686
99.76; 0.030938486; 2.3300169874796
100.78; 0.030926091; 2.3614984137957
101.80; 0.031035204; 2.3930909124219
102.81; 0.031212669; 2.4248640621878
103.83; 0.03136939; 2.4567967477203
104.85; 0.031409338; 2.4887700986352
105.87; 0.031260576; 2.5205920160214
106.89; 0.030898645; 2.5520455032758
107.90; 0.030355437; 2.5829460282521
108.92; 0.029711465; 2.6131910180233
109.94; 0.029074565; 2.6427876701927
110.96; 0.028551873; 2.6718522451876
111.98; 0.028223418; 2.7005824663507
112.99; 0.02812445; 2.729211942334
114.01; 0.028240554; 2.7579596071862
115.03; 0.028515557; 2.7869872138801
116.05; 0.028868794; 2.8163744001165
117.07; 0.029216214; 2.8461152456814
118.08; 0.029489635; 2.876134421505
119.10; 0.02964977; 2.9063166080995
120.12; 0.029690994; 2.9365407591713
121.14; 0.029638133; 2.9667110996391
122.15; 0.029537399; 2.9967788974935
123.17; 0.029444485; 3.0267521123402
124.19; 0.029412801; 3.056693074882
125.21; 0.029484185; 3.0867067025278
126.23; 0.029683326; 3.1169230470885
127.24; 0.030016108; 3.1474781496483
128.26; 0.03047112; 3.1784964346665
129.28; 0.031023063; 3.2100765741811
130.30; 0.031636699; 3.2422813686721
131.32; 0.032270374; 3.2751312168595
132.33; 0.032878929; 3.3086005478758
133.35; 0.033416625; 3.3426172305894
134.37; 0.033841193; 3.3770661048699
135.39; 0.034119886; 3.4117986767472
136.41; 0.034237381; 3.4466508531695
137.42; 0.034203795; 3.4814688406952
138.44; 0.034059734; 3.5161401805292
139.46; 0.033874912; 3.5506233790888
140.48; 0.03373814; 3.5849673499874
141.50; 0.033739276; 3.6193124774413
142.51; 0.033947173; 3.6538692345103
143.53; 0.034390394; 3.6888771718688
144.55; 0.035047972; 3.7245544950814
145.57; 0.035855034; 3.7610533728488
146.59; 0.036723228; 3.7984360346285
147.60; 0.037570129; 3.8366808043835
148.62; 0.038347631; 3.8757170381084
149.64; 0.039058692; 3.9154771013581
150.66; 0.039755412; 3.9559463954448
151.68; 0.040518311; 3.9971922874425
152.69; 0.041424113; 4.0393602473388
153.71; 0.042514325; 4.0826379954326
154.73; 0.043777032; 4.1272011254234
155.75; 0.04514936; 4.1731612253297
156.77; 0.046539671; 4.220536602203
157.78; 0.047860423; 4.2692564474486
158.80; 0.049058012; 4.3191953865899
159.82; 0.05012718; 4.3702226931745
160.84; 0.051104122; 4.4222444836406
161.86; 0.052041623; 4.4752206102219
162.87; 0.052977418; 4.5291493353855
163.89; 0.053909902; 4.5840272898047
164.91; 0.054792205; 4.6398033905957
165.93; 0.05554759; 4.6963484400362
166.94; 0.056099923; 4.7534557405157
167.96; 0.056406489; 4.8108751119621
168.98; 0.056479584; 4.8683688909482
170.00; 0.056388333; 4.9257697809467
171.02; 0.05624065; 4.9830203355361
172.03; 0.056153296; 5.0401819674518
173.05; 0.056222109; 5.0974136479091
174.07; 0.056502975; 5.1549312386228
175.09; 0.057008182; 5.2129631073972
176.11; 0.057715421; 5.2717149155482
177.12; 0.058581657; 5.3313485144175
178.14; 0.059553517; 5.3919714251692
179.16; 0.06056997; 5.4536290404796
180.18; 0.061559268; 5.5162937184269
181.20; 0.062437152; 5.5798520450244
182.21; 0.06311417; 5.6440995461426
183.23; 0.063515987; 5.7087560797092
184.25; 0.06361346; 5.7735118365169
185.27; 0.063452352; 5.8381035925703
186.29; 0.063169472; 5.902407388751
187.30; 0.062984481; 5.9665228727782
188.32; 0.063164099; 6.0308211997684
189.34; 0.063965022; 6.0959348323093
190.36; 0.065569882; 6.1626821428306
191.38; 0.068033814; 6.2319376295148
192.39; 0.071256779; 6.304473956102
193.41; 0.074989751; 6.3808102866516
194.43; 0.07887405; 6.4611006661126
195.45; 0.082505444; 6.5450876473824
196.47; 0.085509951; 6.632133088027
197.48; 0.08761708; 6.7213234948822
198.50; 0.088717453; 6.8116340340423
199.52; 0.088894345; 6.9021246407963
200.54; 0.088421737; 6.992134153217
201.56; 0.087725432; 7.0814348576893
202.57; 0.087309125; 7.1703117792488
203.59; 0.087654475; 7.2595402523414
204.61; 0.08911213; 7.3502525555579
205.63; 0.091806934; 7.4437080529729
206.65; 0.095582219; 7.5410066276973
207.66; 0.10000279; 7.6428051536895
208.68; 0.10442383; 7.7491041032993
209.70; 0.10811606; 7.859161588535
210.72; 0.11042121; 7.9715656154413
211.74; 0.11090106; 8.0844581110322
212.75; 0.10944307; 8.1958664301127
213.77; 0.1062953; 8.3040704563359
214.79; 0.10202164; 8.4079240861886
215.81; 0.097388362; 8.5070612362638
216.82; 0.093209708; 8.6019446966214
217.84; 0.090188466; 8.6937526630933
218.86; 0.088785608; 8.7841325803775
219.88; 0.089143448; 8.8748767642278
220.90; 0.091072764; 8.9675849084143
221.91; 0.094100567; 9.0633752251991
222.93; 0.097564854; 9.1626920365232
223.95; 0.10073678; 9.2652377318473
224.97; 0.1029488; 9.3700351717798
225.99; 0.10370814; 9.4756055787548
227.00; 0.10277739; 9.5802285315432
228.02; 0.10020872; 9.6822366818789
229.04; 0.096324289; 9.7802906513862
230.06; 0.091645598; 9.8735819159532
231.08; 0.086784678; 9.9619249733999
232.09; 0.082320515; 10.045723705566
233.11; 0.078689297; 10.125826014655
234.13; 0.076115172; 10.203307974781
235.15; 0.074598014; 10.279245533539
236.17; 0.07395857; 10.354532166012
237.18; 0.073924174; 10.429783785093
238.20; 0.074226013; 10.505342662991
239.22; 0.07467625; 10.581359862875
240.24; 0.075201567; 10.657911813447
241.26; 0.075826058; 10.735099467957
242.27; 0.076614952; 10.813090182847
243.29; 0.077604487; 10.892088202078
244.31; 0.07874714; 10.972249392961
245.33; 0.079894251; 11.053578292792
246.35; 0.080822749; 11.135852363462
247.36; 0.081295477; 11.218607650871
248.38; 0.081132161; 11.301196689963
249.40; 0.080265038; 11.38290303467
250.42; 0.078760148; 11.463077466761
251.44; 0.076799058; 11.541255593625
252.45; 0.074630389; 11.617226109023
253.47; 0.072510322; 11.691038487442
254.49; 0.070652667; 11.762959853939
255.51; 0.069202455; 11.833404967338
256.53; 0.068235718; 11.90286598356
257.54; 0.067777372; 11.971860423288
258.56; 0.067823258; 12.0409015728
259.58; 0.068353435; 12.110482419895
260.60; 0.069330635; 12.181058014464
261.61; 0.070686761; 12.253014086671
262.63; 0.072307299; 12.326619796782
263.65; 0.074025426; 12.40197448605
264.67; 0.075633848; 12.478966479928
265.69; 0.076914895; 12.557262523861
266.70; 0.077681497; 12.636338935738
267.72; 0.077816793; 12.715553073333
268.74; 0.077300044; 12.794241182274
269.76; 0.076211091; 12.87182078419
270.78; 0.074712644; 12.947875031457
271.79; 0.073016353; 13.02220252823
272.81; 0.071342608; 13.094826224206
273.83; 0.069884244; 13.165965368783
274.85; 0.068781557; 13.235982025557
275.87; 0.068111724; 13.305316821919
276.88; 0.067891843; 13.374427788534
277.90; 0.068092288; 13.443742799748
278.92; 0.068656192; 13.51363184075
279.94; 0.069520815; 13.584401030279
280.96; 0.07063672; 13.656306162688
281.97; 0.071980635; 13.72957934288
282.99; 0.073558117; 13.804458331484
284.01; 0.07539344; 13.881205600385
285.03; 0.077507149; 13.960104533788
286.05; 0.079886092; 14.041425127899
287.06; 0.082455197; 14.125360960813
288.08; 0.085062588; 14.211951004762
289.10; 0.087487992; 14.301010005144
290.12; 0.089478268; 14.392095021029
291.14; 0.090804475; 14.484530057772
292.15; 0.091325505; 14.577495481066
293.17; 0.091037778; 14.670168011108
294.19; 0.090091808; 14.761877583705
295.21; 0.08876543; 14.852236961261
296.23; 0.087397653; 14.941204000729
297.24; 0.086301582; 15.029055286849
298.26; 0.085684072; 15.116277974416
299.28; 0.085599354; 15.203414423265
300.30; 0.085953141; 15.290911012235
301.32; 0.086555941; 15.379021224896
302.33; 0.087205981; 15.46779314999
303.35; 0.087770518; 15.557139749432
304.37; 0.088234429; 15.646958590715
305.39; 0.088697489; 15.737248806899
306.41; 0.089322143; 15.828174894489
307.42; 0.090253932; 15.920049502899
308.44; 0.091548522; 16.013241947846
309.46; 0.093137314; 16.108051714827
310.48; 0.094847971; 16.204602856904
311.49; 0.096472988; 16.302808196161
312.51; 0.097858179; 16.40242359986
313.53; 0.098972844; 16.503173684663
314.55; 0.099929346; 16.604897446559
315.57; 0.10094005; 16.707650064772
316.58; 0.10222616; 16.811711880307
317.60; 0.10391453; 16.91749239246
318.62; 0.10596618; 17.025361396002
319.64; 0.10816878; 17.135472542479
320.66; 0.11020058; 17.247651978334
321.67; 0.11174341; 17.361401946959
322.69; 0.1126007; 17.476024596361
323.71; 0.11277287; 17.590822515944
324.73; 0.11245795; 17.705299860399
325.75; 0.11197473; 17.819285307279
326.76; 0.11163739; 17.932927357051
327.78; 0.11163035; 18.046562237195
328.80; 0.11193269; 18.160504889027
329.82; 0.11232197; 18.274843810167
330.84; 0.11245551; 18.389318669062
331.85; 0.11199688; 18.503326655712
332.87; 0.11073818; 18.616053345976
333.89; 0.10867245; 18.726677213599
334.91; 0.10599223; 18.834572726911
335.93; 0.10302164; 18.93944430695
336.94; 0.10011581; 19.041357880738
337.96; 0.097572524; 19.140682499328
338.98; 0.095592163; 19.237991196392
340.00; 0.094297478; 19.333981960217
341.02; 0.093795378; 19.429461608005
342.03; 0.094242058; 19.525395956647
343.05; 0.095869572; 19.622987044157
344.07; 0.09894833; 19.723712174738
345.09; 0.1036893; 19.829263405925
346.11; 0.1101196; 19.94136040912
347.12; 0.11798292; 20.06146193288
348.14; 0.12671331; 20.190450617732
349.16; 0.13550799; 20.328391900973
350.18; 0.14348934; 20.474457856544
351.20; 0.1499124; 20.6270622061
352.21; 0.15435403; 20.78418795192
353.23; 0.15682271; 20.943826703186
354.25; 0.15775159; 21.104411018693
355.27; 0.15787563; 21.26512159857
356.28; 0.15803065; 21.425989983654
357.30; 0.15893715; 21.587781139727
358.32; 0.1610342; 21.75170700876
359.34; 0.16441007; 21.919069370258
360.36; 0.16884192; 22.090943155183
361.37; 0.17392091; 22.267987133549
362.39; 0.17921276; 22.450417990055
363.41; 0.18439611; 22.6381252743
364.43; 0.18933414; 22.830859256163
365.45; 0.19406227; 23.028406274953
366.46; 0.19870651; 23.230680927737
367.48; 0.20337105; 23.437703884964
368.50; 0.20804265; 23.649482326697
369.52; 0.21254973; 23.865848775705
370.54; 0.21659161; 24.086329685489
371.55; 0.21982584; 24.310102906444
372.57; 0.2219799; 24.536068863216
373.59; 0.22294521; 24.763017467381
374.61; 0.22281889; 24.989837481166
375.63; 0.2218781; 25.215699812212
376.64; 0.22049656; 25.440155796771
377.66; 0.21903257; 25.6631215005
378.68; 0.21772672; 25.884757904492
379.70; 0.2166423; 26.105290419772
380.72; 0.21566488; 26.324827961582
381.73; 0.21455618; 26.543236892022
382.75; 0.2130392; 26.760101605824
383.77; 0.2108826; 26.97477099011
384.79; 0.20795555; 27.186460767073
385.81; 0.20423808; 27.394366319446
386.82; 0.19979001; 27.597743929371
387.84; 0.1946981; 27.795938195802
388.86; 0.18902879; 27.988361348936
389.88; 0.18281086; 28.17445491638
390.90; 0.17605926; 28.353675644767
391.91; 0.16883332; 28.525540676117
392.93; 0.16130637; 28.689743596736
393.95; 0.15381573; 28.846321373831
394.97; 0.1468655; 28.995824111631
395.99; 0.14106873; 29.139425991074
397.00; 0.13703618; 29.278922906979
398.02; 0.13523786; 29.416589207881
399.04; 0.13587552; 29.554904625122
400.06; 0.13880368; 29.696200778332
401.07; 0.14352444; 29.842302468833
402.09; 0.14926176; 29.994244499017
403.11; 0.15509934; 30.152128929454
404.13; 0.16015134; 30.315156087444
405.15; 0.16372878; 30.481824920012
406.16; 0.16546815; 30.650264360959
407.18; 0.1653997; 30.818634119241
408.20; 0.16394498; 30.985523033453
409.22; 0.16184524; 31.150274499447
410.24; 0.16003057; 31.31317871233
411.25; 0.1594469; 31.475488771089
412.27; 0.16086467; 31.639242061686
413.29; 0.16470071; 31.806900274668
414.31; 0.17089037; 31.980859299524
415.33; 0.17884714; 32.162917968754
416.34; 0.18753594; 32.353821467937
417.36; 0.19566379; 32.55299876555
418.38; 0.20195954; 32.758584864806
419.40; 0.20548365; 32.967758349358
420.42; 0.20588929; 33.17734475713
421.43; 0.20355884; 33.384558872845
422.45; 0.19956695; 33.587709420669
423.47; 0.19546779; 33.786687200766
424.49; 0.19295559; 33.983107664465
425.51; 0.19348688; 34.180068957593
426.52; 0.1979661; 34.381589909878
427.54; 0.20657775; 34.591877144408
428.56; 0.21880388; 34.814610056548
429.58; 0.23361066; 35.052415623413
430.60; 0.24973932; 35.306639469514
431.61; 0.26601238; 35.577428594341
432.63; 0.28157013; 35.864054839858
433.65; 0.29598312; 36.165352885833
434.67; 0.30923045; 36.48013613579
435.69; 0.32157535; 36.807485961318
436.70; 0.33339549; 37.146868186322
437.72; 0.34502837; 37.498092178279
438.74; 0.356674; 37.861170917384
439.76; 0.36836691; 38.236152532272
440.78; 0.37999952; 38.622975641992
441.79; 0.391362; 39.021365274509
442.81; 0.40216614; 39.430753054598
443.83; 0.41204172; 39.850193745216
444.85; 0.4205247; 40.278269738738
445.87; 0.42708146; 40.713020236706
446.88; 0.43121795; 41.151981499316
447.90; 0.4326969; 41.592448272727
448.92; 0.43183433; 42.032036984219
449.94; 0.42978436; 42.469538916946
450.95; 0.42867857; 42.90591519842
451.97; 0.43148953; 43.345152917839
452.99; 0.44155475; 43.794636604468
454.01; 0.46181654; 44.26474591781
455.03; 0.49396929; 44.76758534322
456.04; 0.53780234; 45.315044922557
457.06; 0.59102993; 45.916687885225
458.08; 0.64978386; 46.578139813131
459.10; 0.70972867; 47.300612970311
460.12; 0.76751089; 48.081905939255
461.13; 0.82207034; 48.918738068161
462.15; 0.87530967; 49.809765545103
463.17; 0.93177951; 50.758276879095
464.19; 0.99735489; 51.773541124164
465.21; 1.0772509; 52.870136096253
466.22; 1.1740081; 54.065225703345
467.24; 1.2861495; 55.374470419274
468.26; 1.4080242; 56.807778343125
469.28; 1.5309563; 58.36622584239
470.30; 1.6453595; 60.041130767612
471.31; 1.7431312; 61.815563064719
472.33; 1.8195495; 63.667785979435
473.35; 1.8740979; 65.575536783249
474.37; 1.9100624; 67.519897902578
475.39; 1.9332083; 69.487820509243
476.40; 1.9501506; 71.472989692223
477.42; 1.9670669; 73.475378878104
478.44; 1.9891434; 75.500241015644
479.46; 2.0207331; 77.557260071109
480.48; 2.0658198; 79.6601754555
481.49; 2.1282268; 81.826618540127
482.51; 2.21115; 84.077473834336
483.53; 2.3159841; 86.435045708499
484.55; 2.4408619; 88.919737768603
485.57; 2.579613; 91.545672503306
486.58; 2.7218194; 94.316367169012
487.60; 2.8542725; 97.22189340963
488.62; 2.9635722; 100.23868201856
489.64; 3.039084; 103.33233839099
490.66; 3.0752412; 106.46280118178
491.67; 3.0723565; 109.59032749952
492.69; 3.0356529; 112.68049111439
493.71; 2.9729101; 115.70678527922
494.73; 2.8916731; 118.65038366636
495.74; 2.7971321; 121.49774341557
496.76; 2.6914889; 124.23756298913
497.78; 2.574982; 126.85878350439
498.80; 2.448026; 129.35076833438
499.82; 2.3134365; 131.70574685895
500.83; 2.1776634; 133.92251421017
501.85; 2.0503806; 136.00971317807
502.87; 1.9424864; 137.98708051922
503.89; 1.8632646; 139.88380348483
504.91; 1.8178396; 141.73428575162
505.92; 1.8059632; 143.5726783854
506.94; 1.822635; 145.42804216182
507.96; 1.8603048; 147.32175213012
508.98; 1.9117538; 149.26783496373
510.00; 1.9724699; 151.27572424271
511.01; 2.0415434; 153.35392729332
512.03; 2.1207212; 155.51273000644
513.05; 2.2120258; 157.76447679297
514.07; 2.3149423; 160.1209881993
515.09; 2.4243862; 162.58890869779
516.10; 2.5303772; 165.16472348182
517.12; 2.6197091; 167.83147433682
518.14; 2.6791456; 170.55872892521
519.16; 2.6991017; 173.30629794655
520.18; 2.6765861; 176.03094708291
521.19; 2.616436; 178.69436599427
522.21; 2.5304633; 181.27026841367
523.23; 2.4348163; 183.7488063729
524.25; 2.3463959; 186.13733619046
525.27; 2.27938; 188.457646691
526.28; 2.2427635; 190.74068312545
527.30; 2.2394054; 193.02030121806
528.32; 2.2665722; 195.32757386398
529.34; 2.317556; 197.68674584721
530.36; 2.3837597; 200.1133103603
531.37; 2.4566813; 202.61410588226
532.39; 2.5294419; 205.18896855925
533.41; 2.5977481; 207.83336405383
534.43; 2.6603545; 210.54149018262
535.45; 2.7191416; 213.30945899364
536.46; 2.7788678; 216.13822654227
537.48; 2.8465673; 219.03590924404
538.50; 2.9305307; 222.01906301745
539.52; 3.0388791; 225.11251083065
540.54; 3.1778995; 228.34747535294
541.55; 3.3504803; 231.75811967534
542.57; 3.5550759; 235.37703349491
543.59; 3.7855535; 239.23056362688
544.61; 4.0320428; 243.33500920032
545.62; 4.2825803; 247.69449117833
546.64; 4.5250542; 252.3008011068
547.66; 4.7488305; 257.1349055948
548.68; 4.9455625; 262.16927483736
549.70; 5.1090176; 267.37003424938
550.71; 5.2341795; 272.69820311173
551.73; 5.3162339; 278.10989982838
552.75; 5.350144; 283.55611553806
553.77; 5.3313197; 288.98316889556
554.79; 5.2574163; 294.33499185539
555.80; 5.1307435; 299.55786735025
556.82; 4.9603406; 304.60727998434
557.84; 4.7626776; 309.45548028725
558.86; 4.5602456; 314.09761353347
559.88; 4.377938; 318.55416550397
