#Wavenumber (cm^-1);  Spectrum at 400.00 K (cm*km*mol^-1);  Integral (km*mol^-1)
0.00; 0.0024549255; 0.0024990081790426
1.02; 0.0025430318; 0.0050877048087869
2.04; 0.0028031153; 0.0079411552644252
3.05; 0.0032229611; 0.011221990570193
4.07; 0.0037837572; 0.015073692095829
5.09; 0.0044621027; 0.019615920098326
6.11; 0.0052322346; 0.024942109185589
7.13; 0.0060680085; 0.031119080011538
8.14; 0.0069442375; 0.038188014172354
9.16; 0.0078372134; 0.046165959234928
10.18; 0.0087245535; 0.05504717826153
11.20; 0.0095848313; 0.064804122894105
12.22; 0.010397602; 0.07538843298658
13.23; 0.01114433; 0.086732879805841
14.25; 0.011810343; 0.098755299057446
15.27; 0.012387419; 0.11136515731603
16.29; 0.012876166; 0.12447253866196
17.31; 0.013287198; 0.13799833323608
18.32; 0.013640409; 0.15188368078993
19.34; 0.013962232; 0.16609663016437
20.36; 0.014281556; 0.18063463780167
21.38; 0.014625472; 0.19552273752088
22.40; 0.01501612; 0.21080850021467
23.41; 0.015469445; 0.22655572724461
24.43; 0.015995858; 0.24283882015684
25.45; 0.016601991; 0.2597389302403
26.47; 0.017292238; 0.2773416823658
27.48; 0.018068943; 0.29573508679628
28.50; 0.018930742; 0.31500576514537
29.52; 0.019869536; 0.33523209492406
30.54; 0.020867362; 0.35647416937326
31.56; 0.02189473; 0.3787620596729
32.57; 0.022911622; 0.40208510203376
33.59; 0.023871549; 0.4263853091412
34.61; 0.024728034; 0.45155738066258
35.63; 0.025442172; 0.47745641354359
36.65; 0.025989682; 0.5039127879602
37.66; 0.026366082; 0.53075232198
38.68; 0.026589139; 0.55781891771914
39.70; 0.026698211; 0.58499654494439
40.72; 0.026750431; 0.61222732971984
41.74; 0.026813765; 0.6395225856175
42.75; 0.026957269; 0.66696392171207
43.77; 0.027239351; 0.69469240571558
44.79; 0.02769578; 0.72288551415066
45.81; 0.028330105; 0.75172433846828
46.83; 0.029109694; 0.78135675051889
47.84; 0.029969979; 0.81186489638853
48.86; 0.030827697; 0.84324616180597
49.88; 0.031601027; 0.87541464411897
50.90; 0.032231696; 0.90822512018984
51.92; 0.032702355; 0.9415147062758
52.93; 0.03304303; 0.97515108532472
53.95; 0.033323364; 1.0090728314884
54.97; 0.033631987; 1.0433087427286
55.99; 0.034049157; 1.0779693153709
57.01; 0.03462172; 1.1132127318954
58.02; 0.035349224; 1.1491967169027
59.04; 0.036186326; 1.1860328351127
60.06; 0.037060628; 1.2237589556334
61.08; 0.037899176; 1.2623386811479
62.10; 0.038653265; 1.301686037024
63.11; 0.039311831; 1.3417037846287
64.13; 0.039898297; 1.3823185294327
65.15; 0.040452801; 1.4234977351643
66.17; 0.041008194; 1.4652423067225
67.19; 0.04157135; 1.5075601466909
68.20; 0.042119507; 1.550435987279
69.22; 0.042615052; 1.5938162709883
70.24; 0.043033771; 1.6376227923807
71.26; 0.043394652; 1.6817966757739
72.27; 0.043776928; 1.7263596997791
73.29; 0.044313645; 1.7714690776697
74.31; 0.045159611; 1.817439612452
75.33; 0.046441929; 1.864715491833
76.35; 0.048209329; 1.9137905084152
77.36; 0.050398842; 1.9650943551184
78.38; 0.052833651; 2.0188767324051
79.40; 0.055255728; 2.0751246791522
80.42; 0.057384803; 2.133539932581
81.44; 0.058985825; 2.1935849570593
82.45; 0.0599239; 2.2545849014265
83.47; 0.060189993; 2.3158557165527
84.49; 0.059890737; 2.3768219022749
85.51; 0.059207817; 2.437092905529
86.53; 0.058342023; 2.4964825670015
87.54; 0.057460882; 2.5549752658366
88.56; 0.056665719; 2.6126585221616
89.58; 0.055985543; 2.6696493890546
90.60; 0.055395053; 2.7260391624568
91.62; 0.054845912; 2.7818699345726
92.63; 0.05429742; 2.8371423649715
93.65; 0.053735206; 2.8918424862934
94.67; 0.053173218; 2.945970527562
95.69; 0.05264184; 2.9995576490852
96.71; 0.052170449; 3.0526649144351
97.72; 0.051773883; 3.1053684931215
98.74; 0.051449231; 3.1577415906085
99.76; 0.051183591; 3.2098442772647
100.78; 0.050967826; 3.2617273251345
101.80; 0.050808327; 3.3134480098441
102.81; 0.050729589; 3.3650885427789
103.83; 0.050764746; 3.4167648632419
104.85; 0.050936958; 3.4686164886451
105.87; 0.05123936; 3.520775945919
106.89; 0.051622863; 3.5733257931877
107.90; 0.051998835; 3.626258363236
108.92; 0.052258158; 3.6794549132636
109.94; 0.052301687; 3.7326957734152
110.96; 0.052072054; 3.7857028775499
111.98; 0.051575321; 3.8382043291839
112.99; 0.0508837; 3.8900017397201
114.01; 0.050116762; 3.941018440339
115.03; 0.049405993; 3.9913116095181
116.05; 0.04885362; 4.0410424867672
117.07; 0.048499154; 4.0904125328574
118.08; 0.048305084; 4.1395850237614
119.10; 0.048167152; 4.1886171055201
120.12; 0.047946683; 4.2374247600412
121.14; 0.047515132; 4.285793114193
122.15; 0.046796805; 4.3334302419164
123.17; 0.045796086; 4.3800486817295
124.19; 0.044600285; 4.4254498473398
125.21; 0.043356881; 4.4695852817457
126.23; 0.042232043; 4.5125756790953
127.24; 0.041363077; 4.5546815064123
128.26; 0.040819268; 4.5962337598847
129.28; 0.040582761; 4.6375452591535
130.30; 0.040554814; 4.6788283098427
131.32; 0.040585002; 4.7201420901483
132.33; 0.040514215; 4.761383812735
133.35; 0.040218703; 4.8023247167463
134.37; 0.039642773; 4.8426793486271
135.39; 0.038811799; 4.8821880857011
136.41; 0.037823331; 4.9206906041295
137.42; 0.036820301; 4.9581720818195
138.44; 0.035954832; 4.9947725492145
139.46; 0.035352648; 5.0307600191587
140.48; 0.035086748; 5.0664768142791
141.50; 0.035165412; 5.10227368612
142.51; 0.035535297; 5.1384470849599
143.53; 0.036096621; 5.1751918871363
144.55; 0.036725218; 5.2125765743623
145.57; 0.037295856; 5.2505421466787
146.59; 0.037702311; 5.2889214719448
147.60; 0.037871617; 5.3274731435534
148.62; 0.03777184; 5.3659232467219
149.64; 0.037414046; 5.4040091315277
150.66; 0.036849682; 5.4415205181348
151.68; 0.036164376; 5.4783342926229
152.69; 0.035468642; 5.5144398400905
153.71; 0.034885541; 5.5499518151425
154.73; 0.034535387; 5.585107348931
155.75; 0.034518273; 5.620245461315
156.77; 0.034896275; 5.655768363398
157.78; 0.035678425; 5.6920874609139
158.80; 0.036812206; 5.7295606981129
159.82; 0.038185008; 5.7684313888466
160.84; 0.039637432; 5.8087805846248
161.86; 0.040987636; 5.8505042292796
162.87; 0.042062862; 5.8933224073351
163.89; 0.042731725; 5.9368214590178
164.91; 0.042929816; 5.9805221588333
165.93; 0.04267228; 6.0239606980241
166.94; 0.042050157; 6.0667659429705
167.96; 0.041211583; 6.1087175560082
168.98; 0.040333028; 6.1497748379475
170.00; 0.039588184; 6.1900739011687
171.02; 0.03912201; 6.2298984195956
172.03; 0.03903484; 6.2696342022219
173.05; 0.039377457; 6.3097187542418
174.07; 0.040154275; 6.3505940732453
175.09; 0.041329804; 6.3926660298047
176.11; 0.042834245; 6.4362694429598
177.12; 0.044566867; 6.4816365900805
178.14; 0.046399298; 6.5288690736862
179.16; 0.048183145; 6.5779174358924
180.18; 0.049765853; 6.6285769263762
181.20; 0.051015441; 6.6805084434535
182.21; 0.051849718; 6.733289218682
183.23; 0.052261303; 6.7864889703467
184.25; 0.052328418; 6.8397570416048
185.27; 0.0522043; 6.8928987667803
186.29; 0.052084675; 6.9459187188306
187.30; 0.052160627; 6.9990159858861
188.32; 0.052570372; 7.0525303560325
189.34; 0.053364991; 7.1068536138026
190.36; 0.054499122; 7.1623313682648
191.38; 0.055849273; 7.2191835179574
192.39; 0.057252803; 7.2774644008513
193.41; 0.058553689; 7.3370695295431
194.43; 0.05963963; 7.3977800997941
195.45; 0.060459559; 7.4593253215811
196.47; 0.061019178; 7.5214402116504
197.48; 0.061361131; 7.5839031953706
198.50; 0.061541863; 7.6465501563873
199.52; 0.06161695; 7.7092735527231
200.54; 0.061640852; 7.772021280312
201.56; 0.061678501; 7.8348073324339
202.57; 0.061818923; 7.897736328503
203.59; 0.062178729; 7.9610315910276
204.61; 0.062887082; 8.0250479269859
205.63; 0.064052296; 8.0902504002451
206.65; 0.06571965; 8.1571501681945
207.66; 0.067836214; 8.2262045068545
208.68; 0.070238255; 8.2977040197058
209.70; 0.072670007; 8.37167895107
210.72; 0.074831652; 8.4478543441026
211.74; 0.076443733; 8.5256707653711
212.75; 0.077309091; 8.60436808407
213.77; 0.077354259; 8.6831113820784
214.79; 0.076639425; 8.7611270099664
215.81; 0.075336673; 8.8378164918793
216.82; 0.073685842; 8.9128254995887
217.84; 0.071942572; 8.986059932934
218.86; 0.070332435; 9.0576553172246
219.88; 0.069019835; 9.1279145307313
220.90; 0.068093375; 9.1972306477493
221.91; 0.067564224; 9.2660081124915
222.93; 0.067372356; 9.334590263916
223.95; 0.06739747; 9.4031979803012
224.97; 0.06747479; 9.4718844050281
225.99; 0.067418058; 9.5405130793266
227.00; 0.067051039; 9.6087681432928
228.02; 0.066244698; 9.6762023868413
229.04; 0.064951979; 9.7423206984134
230.06; 0.063228748; 9.8066848356795
231.08; 0.061230627; 9.8690149713561
232.09; 0.059181639; 9.9292593265437
233.11; 0.057320106; 9.9876087208169
234.13; 0.055836299; 10.044447663406
235.15; 0.054821218; 10.100253298116
236.17; 0.054243848; 10.155471195113
237.18; 0.053965686; 10.210405935017
238.20; 0.053789057; 10.265160874177
239.22; 0.053524202; 10.319646202052
240.24; 0.053053668; 10.373652547151
241.26; 0.052373488; 10.426966497795
242.27; 0.051598491; 10.479491534712
243.29; 0.050930905; 10.531336998561
244.31; 0.05060278; 10.582848445407
245.33; 0.050809954; 10.634570785724
246.35; 0.051656293; 10.687154662941
247.36; 0.053122182; 10.741230751402
248.38; 0.055063081; 10.797282591847
249.40; 0.057235602; 10.855545964667
250.42; 0.059342421; 10.915953988867
251.44; 0.061084825; 10.978135705051
252.45; 0.062212271; 11.041465112721
253.47; 0.062560941; 11.105149450602
254.49; 0.062076335; 11.168340480972
255.51; 0.060817774; 11.230250350887
256.53; 0.058945012; 11.290253829483
257.54; 0.056689473; 11.347961266299
258.56; 0.054315015; 11.403251607634
259.58; 0.052075351; 11.456262067999
260.60; 0.050176486; 11.507339565856
261.61; 0.048751846; 11.556966841405
262.63; 0.047854751; 11.605680913191
263.65; 0.047468118; 11.654001409154
264.67; 0.047526247; 11.702381078105
265.69; 0.047940217; 11.751182150242
266.70; 0.048618178; 11.800673357434
267.72; 0.049475017; 11.851036789842
268.74; 0.050431192; 11.902373567029
269.76; 0.0514058; 11.954702453028
270.78; 0.052311752; 12.007953559615
271.79; 0.05305991; 12.061966258654
272.81; 0.053574451; 12.116502738141
273.83; 0.053815516; 12.171284611017
274.85; 0.053800093; 12.226050784476
275.87; 0.053610631; 12.280624093305
276.88; 0.053384012; 12.334966714383
277.90; 0.053280415; 12.389203877883
278.92; 0.053439516; 12.443602999569
279.94; 0.053937378; 12.498508922895
280.96; 0.054758543; 12.554250756938
281.97; 0.055793698; 12.611046333435
282.99; 0.056865025; 12.668932475479
284.01; 0.057772105; 12.7277419859
285.03; 0.058344254; 12.787133918541
286.05; 0.058483172; 12.846667264234
287.06; 0.058183285; 12.905895337527
288.08; 0.057524849; 12.964453151595
289.10; 0.056643955; 13.022114253968
290.12; 0.055690634; 13.078804916284
291.14; 0.054789116; 13.134577872554
292.15; 0.05401218; 13.189559941463
293.17; 0.053375584; 13.243893983114
294.19; 0.052851306; 13.297694331965
295.21; 0.052392332; 13.351027465607
296.23; 0.051959062; 13.403919549079
297.24; 0.051538509; 13.45638352682
298.26; 0.051151515; 13.50845356213
299.28; 0.050848214; 13.5602148497
300.30; 0.050695878; 13.611821065755
301.32; 0.050764843; 13.663497485465
302.33; 0.051116994; 13.715532379601
303.35; 0.051798423; 13.768260939245
304.37; 0.05283485; 13.822044537115
305.39; 0.054226783; 13.877245062249
306.41; 0.055942038; 13.934191642776
307.42; 0.057905863; 13.993137312131
308.44; 0.059992239; 14.054206822716
309.46; 0.062022323; 14.117342871607
310.48; 0.063775921; 14.182264006944
311.49; 0.065018879; 14.248450419653
312.51; 0.065544004; 14.31517138725
313.53; 0.065217318; 14.381559802903
314.55; 0.064017374; 14.446726726982
315.57; 0.062054824; 14.509895859881
316.58; 0.059563209; 14.570528636204
317.60; 0.056859265; 14.628408914463
318.62; 0.054279893; 14.683663503145
319.64; 0.052110474; 14.736709717162
320.66; 0.050522943; 14.788139893026
321.67; 0.049540448; 14.838569930867
322.69; 0.049038789; 14.888489301936
323.71; 0.048784923; 14.938150248414
324.73; 0.048502546; 14.98752374722
325.75; 0.047947233; 15.03633196127
326.76; 0.046970986; 15.084146398068
327.78; 0.045559138; 15.130523635038
328.80; 0.043830388; 15.175141078959
329.82; 0.042000978; 15.217896261776
330.84; 0.040323736; 15.258944085466
331.85; 0.039019171; 15.298663917816
332.87; 0.038217329; 15.337567509539
333.89; 0.037925587; 15.376174120259
334.91; 0.038029978; 15.414886997266
335.93; 0.038328437; 15.453903691975
336.94; 0.038585911; 15.493182484298
337.96; 0.038595979; 15.532471524996
338.98; 0.038232556; 15.571390617509
340.00; 0.037478708; 15.609542324552
341.02; 0.036426219; 15.646622644086
342.03; 0.035247632; 15.682503212343
343.05; 0.034149523; 15.717265953031
344.07; 0.033320202; 15.751184480442
345.09; 0.032885511; 15.784660511919
346.11; 0.032883277; 15.818134269411
347.12; 0.033261184; 15.851992719708
348.14; 0.03389633; 15.886497720552
349.16; 0.034629288; 15.921748841748
350.18; 0.03530263; 15.95768539556
351.20; 0.035794016; 15.994122159762
352.21; 0.036036812; 16.0308060795
353.23; 0.03602538; 16.067478361315
354.25; 0.03580649; 16.103927823162
355.27; 0.035461315; 16.140025911272
356.28; 0.035083695; 16.175739599046
357.30; 0.03475992; 16.211123697988
358.32; 0.034553632; 16.246297803857
359.34; 0.03449756; 16.281414831061
360.36; 0.034592144; 16.316628140917
361.37; 0.034809991; 16.352063209543
362.39; 0.035104547; 16.387798123737
363.41; 0.035421075; 16.423855249696
364.43; 0.035707898; 16.460204348641
365.45; 0.035925918; 16.496775382481
366.46; 0.036054746; 16.533477558573
367.48; 0.036094501; 16.570220203424
368.50; 0.036063362; 16.606931150181
369.52; 0.035992038; 16.643569491905
370.54; 0.035916953; 16.680131399749
371.55; 0.035873954; 16.7166495371
372.57; 0.035893649; 16.753187722853
373.59; 0.035998428; 16.789832568732
374.61; 0.036200439; 16.82668305335
375.63; 0.036499616; 16.863838087498
376.64; 0.036881503; 16.901381866136
377.66; 0.037315687; 16.939367625114
378.68; 0.037756463; 16.977802075262
379.70; 0.038147295; 17.01663437527
380.72; 0.038429452; 17.055753898666
381.73; 0.038553314; 17.094999508673
382.75; 0.03848908; 17.134179731726
383.77; 0.038232989; 17.173099264546
384.79; 0.037806239; 17.211584384721
385.81; 0.037246365; 17.249499576624
386.82; 0.036593864; 17.286750551049
387.84; 0.035879131; 17.323273958386
388.86; 0.03511495; 17.359019461949
389.88; 0.034297787; 17.393933129271
390.90; 0.033417532; 17.427950735301
391.91; 0.032471675; 17.461005499413
392.93; 0.03147785; 17.49304859213
393.95; 0.030479146; 17.524075047442
394.97; 0.029539488; 17.554144971471
395.99; 0.028730488; 17.583391368624
397.00; 0.028114694; 17.612010913642
398.02; 0.027731536; 17.64024042042
399.04; 0.027590981; 17.668326848225
400.06; 0.027676523; 17.696500354498
401.07; 0.027955308; 17.724957651876
402.09; 0.028390566; 17.753858023444
403.11; 0.02895128; 17.783329176735
404.13; 0.029616022; 17.813477009495
405.15; 0.030371125; 17.844393503693
406.16; 0.031206013; 17.876159878575
407.18; 0.032109524; 17.908845988531
408.20; 0.033069728; 17.942509544469
409.22; 0.034077175; 17.977198637762
410.24; 0.035128893; 18.012958334857
411.25; 0.036229442; 18.049838343511
412.27; 0.037386473; 18.087896160117
413.29; 0.038601122; 18.127190437086
414.31; 0.039856733; 18.167762871866
415.33; 0.04111124; 18.209612340547
416.34; 0.042297924; 18.252669802124
417.36; 0.043336272; 18.296784256615
418.38; 0.044150489; 18.341727548737
419.40; 0.04468969; 18.387219724337
420.42; 0.044942518; 18.432969268288
421.43; 0.044940589; 18.478716848413
422.45; 0.044749111; 18.524269512309
423.47; 0.044447704; 18.569515356904
424.49; 0.044107925; 18.614415321461
425.51; 0.043774995; 18.65897637702
426.52; 0.043459391; 18.703216162046
427.54; 0.043140267; 18.747131092233
428.56; 0.042778524; 18.790677784172
429.58; 0.0423345; 18.83377247839
430.60; 0.041784343; 18.876307136892
431.61; 0.041130391; 18.918176099768
432.63; 0.040403262; 18.959304877301
433.65; 0.039656005; 18.999672979216
434.67; 0.038952473; 19.039324915785
435.69; 0.038352984; 19.078366598123
436.70; 0.037900312; 19.116947480054
437.72; 0.037608718; 19.155231531726
438.74; 0.037458277; 19.193362441718
439.76; 0.03739625; 19.231430210992
440.78; 0.037346303; 19.269447136021
441.79; 0.03722485; 19.307340427131
442.81; 0.036961687; 19.344965829925
443.83; 0.036520081; 19.38214169643
444.85; 0.035910492; 19.418697027881
445.87; 0.035192968; 19.454521950428
446.88; 0.034466093; 19.489606945607
447.90; 0.033844582; 19.524059269302
448.92; 0.033431599; 19.558091194341
449.94; 0.033294106; 19.591983157391
450.95; 0.033448827; 19.626032619906
451.97; 0.03386286; 19.660503549709
452.99; 0.034467804; 19.695590286952
454.01; 0.035181619; 19.731403657199
455.03; 0.035930142; 19.767978990931
456.04; 0.036661297; 19.805298609002
457.06; 0.037348907; 19.843318185014
458.08; 0.037987853; 19.881988179766
459.10; 0.038585846; 19.92126690642
460.12; 0.039157624; 19.961127677876
461.13; 0.039724649; 20.001565655937
462.15; 0.040319006; 20.04260866462
463.17; 0.040986359; 20.084331009378
464.19; 0.041781917; 20.126863198186
465.21; 0.042756264; 20.170387230212
466.22; 0.043933449; 20.215109585531
467.24; 0.045289486; 20.26121232749
468.26; 0.046742166; 20.308793835621
469.28; 0.048160972; 20.357819627169
470.30; 0.049399011; 20.40810568829
471.31; 0.050339804; 20.459349436567
472.33; 0.050944257; 20.511208491464
473.35; 0.051280707; 20.563410038311
474.37; 0.051525254; 20.61586052306
475.39; 0.051929228; 20.668722235944
476.40; 0.052762165; 20.722431843029
477.42; 0.054247327; 20.77765328077
478.44; 0.056509252; 20.835177260942
479.46; 0.059548096; 20.895794652644
480.48; 0.06324571; 20.960176055868
481.49; 0.067397696; 21.028784002408
482.51; 0.071758287; 21.101830841873
483.53; 0.076083481; 21.179280542507
484.55; 0.080162185; 21.260882187634
485.57; 0.083832369; 21.346219921835
486.58; 0.086985751; 21.434767663219
487.60; 0.089567186; 21.525943193859
488.62; 0.091573136; 21.619160695227
489.64; 0.093049099; 21.713880663153
490.66; 0.094081896; 21.809651973547
491.67; 0.094782205; 21.906136168578
492.69; 0.095256524; 22.003103199235
493.71; 0.095574168; 22.100393577867
494.73; 0.0957405; 22.197853275462
495.74; 0.095688714; 22.295260257183
496.76; 0.095297634; 22.392269136624
497.78; 0.094433392; 22.488398254618
498.80; 0.093002474; 22.583070759555
499.82; 0.090997289; 22.675702072919
500.83; 0.088516457; 22.76580800657
501.85; 0.085750721; 22.853098540741
502.87; 0.082938498; 22.937526352744
503.89; 0.080307135; 23.019275550506
504.91; 0.078021738; 23.098698312818
505.92; 0.076160229; 23.176226139729
506.94; 0.074722312; 23.252290229118
507.96; 0.073665812; 23.327278847253
508.98; 0.07295249; 23.401541334448
510.00; 0.072581753; 23.47542642674
511.01; 0.07259631; 23.549326337615
512.03; 0.073056359; 23.623694558788
513.05; 0.073992989; 23.699016229123
514.07; 0.075361273; 23.775730752632
515.09; 0.077014837; 23.854128533137
516.10; 0.078716063; 23.934258088184
517.12; 0.080182524; 24.015880437625
518.14; 0.081156323; 24.098494072298
519.16; 0.081473995; 24.181431083606
520.18; 0.081114012; 24.264001647442
521.19; 0.080206564; 24.345648468108
522.21; 0.079003122; 24.426070237359
523.23; 0.077816298; 24.505283870386
524.25; 0.076949047; 24.583614679822
525.27; 0.076633648; 24.661624426306
526.28; 0.076995197; 24.740002214631
527.30; 0.078044559; 24.819448207677
528.32; 0.079695751; 24.900575042871
529.34; 0.081796587; 24.983840438789
530.36; 0.084160813; 25.069512514336
531.37; 0.086594446; 25.157661923633
532.39; 0.088915736; 25.248174305639
533.41; 0.090973364; 25.340781264975
534.43; 0.092668385; 25.435113682107
535.45; 0.09398112; 25.530782406487
536.46; 0.094996882; 25.627485132656
537.48; 0.09591783; 25.725125344556
538.50; 0.097046788; 25.823914786896
539.52; 0.098734843; 25.92442259635
540.54; 0.10129712; 26.027538697928
541.55; 0.10491593; 26.134338588272
542.57; 0.10956098; 26.245866937496
543.59; 0.11495725; 26.362888457429
544.61; 0.12061936; 26.48567376562
545.62; 0.12595041; 26.613885845626
546.64; 0.13037984; 26.746606893985
547.66; 0.13349885; 26.88250296451
548.68; 0.13514963; 27.020079455544
549.70; 0.1354393; 27.15795081534
550.71; 0.13467568; 27.295044846854
