#Wavenumber (cm^-1); Spectrum (K*cm*km*mol^-1); Integral (K*km*mol^-1)
0.00; 0.7350782; 0.74827788563232
1.02; 0.77958955; 1.5418664102823
2.04; 0.91185311; 2.4700935289064
3.05; 1.1278213; 3.6181669868478
4.07; 1.4201147; 5.0637824217909
5.09; 1.7775447; 6.8732462440847
6.11; 2.1851957; 9.0976811943166
7.13; 2.6254203; 11.770245777866
8.14; 3.0798131; 14.905362595569
9.16; 3.5318575; 18.500641150757
10.18; 3.9696353; 22.541558592951
11.20; 4.3878576; 27.008208238974
12.22; 4.7885879; 31.882784132364
13.23; 5.1803555; 37.156162495769
14.25; 5.5758022; 42.832088575112
15.27; 5.9884314; 48.928053339643
16.29; 6.4292772; 55.472780095222
17.31; 6.9043228; 62.50108276425
18.32; 7.4132538; 70.047455255771
19.34; 7.949737; 78.139944431954
20.36; 8.5029963; 86.795627778456
21.38; 9.0601589; 96.018478542261
22.40; 9.608735; 105.79975610331
23.41; 10.138694; 116.12050887929
24.43; 10.643811; 126.95544945639
25.45; 11.122208; 138.27737753445
26.47; 11.576166; 150.0614150106
27.48; 12.011371; 162.28847286146
28.50; 12.435735; 174.94751422006
29.52; 12.857902; 188.03630333047
30.54; 13.285617; 201.56048860448
31.56; 13.724193; 215.531124871
32.57; 14.175437; 229.96110837659
33.59; 14.637448; 244.86139844168
34.61; 15.105524; 260.23816984552
35.63; 15.574169; 276.09200158182
36.65; 16.039736; 292.41976042034
37.66; 16.502936; 309.21903691068
38.68; 16.970293; 326.49406328278
39.70; 17.45384; 344.26131966595
40.72; 17.968846; 362.55282946084
41.74; 18.530041; 381.41561125563
42.75; 19.147367; 400.90680440625
43.77; 19.822541; 421.08529542578
44.79; 20.547532; 442.00179598157
45.81; 21.305485; 463.68985999157
46.83; 22.073846; 486.16008229029
47.84; 22.828771; 509.39878647496
48.86; 23.549566; 533.37122842489
49.88; 24.221993; 558.02817213999
50.90; 24.839808; 583.31402458132
51.92; 25.404506; 609.17471537686
52.93; 25.923845; 635.56407053477
53.95; 26.409929; 662.44823886458
54.97; 26.877529; 689.80840340191
55.99; 27.342875; 717.64227007379
57.01; 27.822737; 745.96461570435
58.02; 28.333286; 774.80667857251
59.04; 28.888297; 804.21371875577
60.06; 29.496608; 834.23999285096
61.08; 30.159297; 864.94085600642
62.10; 30.867519; 896.36265792801
63.11; 31.602103; 928.53223470647
64.13; 32.335787; 961.44867039921
65.15; 33.038248; 995.08018168998
66.17; 33.683187; 1029.3682125815
67.19; 34.255814; 1064.239153478
68.20; 34.758577; 1099.6218852017
69.22; 35.213017; 1135.4672171155
70.24; 35.656468; 1171.7639625492
71.26; 36.133667; 1208.5464762869
72.27; 36.685; 1245.8902234495
73.29; 37.334472; 1283.8951051221
74.31; 38.081129; 1322.6600512143
75.33; 38.897129; 1362.2556502808
76.35; 39.733975; 1402.7031222325
77.36; 40.535917; 1443.966936879
78.38; 41.256996; 1485.9647788564
79.40; 41.876472; 1528.5932204318
80.42; 42.407297; 1571.7620185267
81.44; 42.894056; 1615.4263163576
82.45; 43.400078; 1659.6057227293
83.47; 43.987156; 1704.3827498325
84.49; 44.694224; 1749.8795413778
85.51; 45.522178; 1796.2191539289
86.53; 46.430377; 1843.4832739004
87.54; 47.346524; 1891.6799918389
88.56; 48.186972; 1940.7322500449
89.58; 48.880719; 1990.4907126785
90.60; 49.388906; 2040.7664874872
91.62; 49.713252; 2091.3724326943
92.63; 49.890956; 2142.1592726189
93.65; 49.978687; 2193.0354189014
94.67; 50.032378; 2243.9662202752
95.69; 50.090934; 2294.9566299212
96.71; 50.170118; 2346.0276453478
97.72; 50.268421; 2397.1987290523
98.74; 50.381552; 2448.4849744356
99.76; 50.518332; 2499.9104565869
100.78; 50.710032; 2551.5310812661
101.80; 51.007792; 2603.454812096
102.81; 51.467857; 2655.8468693572
103.83; 52.129756; 2708.9127117334
104.85; 52.99604; 2762.8603932853
105.87; 54.022277; 2817.852740128
106.89; 55.122511; 2873.9650776404
107.90; 56.189597; 2931.1636622727
108.92; 57.124097; 2989.3135283687
109.94; 57.861923; 3048.2144690267
110.96; 58.391079; 3107.6540677845
111.98; 58.751709; 3167.4607724406
112.99; 59.019581; 3227.5401591924
114.01; 59.279046; 3287.8836695593
115.03; 59.595077; 3348.5488864907
116.05; 59.994048; 3409.6202383231
117.07; 60.459477; 3471.1653768188
118.08; 60.943529; 3533.2032597337
119.10; 61.389538; 3595.6951600749
120.12; 61.757247; 3658.5613728089
121.14; 62.041932; 3721.7173821817
122.15; 62.280988; 3785.1167405978
123.17; 62.54599; 3848.7858591391
124.19; 62.922887; 3912.8386428983
125.21; 63.486518; 3977.4651788385
126.23; 64.276905; 4042.8962949317
127.24; 65.28384; 4109.3524264961
128.26; 66.443589; 4176.9891327967
129.28; 67.648224; 4245.852105391
130.30; 68.765007; 4315.8519149838
131.32; 69.66126; 4386.7640713531
132.33; 70.229332; 4458.254501149
133.35; 70.406672; 4529.925454562
134.37; 70.187206; 4601.3730016666
135.39; 69.622011; 4672.2452046253
136.41; 68.809206; 4742.290007302
137.42; 67.875062; 4811.3838919201
138.44; 66.950077; 4879.5361810675
139.46; 66.145014; 4946.8689507702
140.48; 65.532227; 5013.577929536
141.50; 65.136677; 5079.8842558399
142.51; 64.938922; 5145.9892763587
143.53; 64.889279; 5212.0437623721
144.55; 64.929144; 5278.1388288802
145.57; 65.013027; 5344.3192848687
146.59; 65.124172; 5410.6128816367
147.60; 65.278153; 5477.063224224
148.62; 65.51242; 5543.7520409355
149.64; 65.864431; 5610.7991890226
150.66; 66.345301; 5678.3358429656
151.68; 66.918345; 5746.4558301754
152.69; 67.491263; 5815.1590237406
153.71; 67.927117; 5884.3058977701
154.73; 68.073296; 5953.6015757486
155.75; 67.801496; 6022.620572708
156.77; 67.047191; 6090.8717203329
157.78; 65.836046; 6157.8899746965
158.80; 64.287719; 6223.3320987054
159.82; 62.593921; 6287.0500091979
160.84; 60.97541; 6349.1203450229
161.86; 59.629342; 6409.8204423541
162.87; 58.681801; 6469.5559836399
163.89; 58.159128; 6528.7594661345
164.91; 57.986239; 6587.7869550474
165.93; 58.012065; 6646.840733455
166.94; 58.054242; 6705.9374463638
167.96; 57.949733; 6764.9277741049
168.98; 57.59685; 6823.5588817252
170.00; 56.977433; 6881.5594497907
171.02; 56.154517; 6938.7223248552
172.03; 55.248373; 6994.9627844291
173.05; 54.399997; 7050.3396336849
174.07; 53.733959; 7105.0384847732
175.09; 53.331419; 7159.3275674797
176.11; 53.219681; 7213.5029058445
177.12; 53.378608; 7267.8400252139
178.14; 53.758682; 7322.5640441076
179.16; 54.302281; 7377.8414231111
180.18; 54.959777; 7433.7881049503
181.20; 55.695161; 7490.4833751182
182.21; 56.480717; 7547.9783082518
183.23; 57.285104; 7606.2920726677
184.25; 58.062066; 7665.396749886
185.27; 58.746988; 7725.1986488824
186.29; 59.265396; 7785.5282646338
187.30; 59.552411; 7846.1500497108
188.32; 59.577076; 7906.7969420207
189.34; 59.362197; 7967.225096515
190.36; 58.990581; 8027.2749619142
191.38; 58.592379; 8086.9194751634
192.39; 58.314722; 8146.2813456819
193.41; 58.281652; 8205.6095527156
194.43; 58.556992; 8265.2180435636
195.45; 59.123219; 8325.4029292358
196.47; 59.885085; 8386.3633619726
197.48; 60.698764; 8448.1520844503
198.50; 61.418435; 8510.6734010556
199.52; 61.945602; 8573.7313505003
200.54; 62.264671; 8637.1140991335
201.56; 62.452348; 8700.687894497
202.57; 62.656939; 8764.4699550734
203.59; 63.053838; 8828.6560410605
204.61; 63.791522; 8893.5930572338
205.63; 64.94552; 8959.7047942623
206.65; 66.494789; 9027.3936203876
207.66; 68.327044; 9096.9476023442
208.68; 70.269797; 9168.4792236555
209.70; 72.135763; 9241.9103175062
210.72; 73.767681; 9317.0026339629
211.74; 75.069518; 9393.420163478
212.75; 76.017069; 9470.8022596361
213.77; 76.648657; 9548.8272851181
214.79; 77.042666; 9627.2533948206
215.81; 77.291206; 9705.9325073685
216.82; 77.477738; 9784.8015016368
217.84; 77.662533; 9863.8586091324
218.86; 77.875581; 9943.1325899508
219.88; 78.114135; 10022.649408733
220.90; 78.342287; 10102.398476514
221.91; 78.492184; 10182.300132678
222.93; 78.468983; 10262.178170953
223.95; 78.162511; 10341.744234281
224.97; 77.466916; 10420.602211838
225.99; 76.305853; 10498.278277416
227.00; 74.65676; 10574.275637629
228.02; 72.565701; 10648.14438946
229.04; 70.145669; 10719.549653989
230.06; 67.556143; 10788.318892039
231.08; 64.968328; 10854.453846684
232.09; 62.526347; 10918.102969382
233.11; 60.316859; 10979.502928659
234.13; 58.357213; 11038.908053597
235.15; 56.605706; 11096.530219712
236.17; 54.989464; 11152.50712099
237.18; 53.439016; 11206.905733651
238.20; 51.916398; 11259.754386346
239.22; 50.426585; 11311.086473588
240.24; 49.009019; 11360.975540004
241.26; 47.714068; 11409.546402404
242.27; 46.575246; 11456.9579934
243.29; 45.589456; 11503.366092222
244.31; 44.713899; 11548.882911581
245.33; 43.881182; 11593.552061268
246.35; 43.026459; 11637.351139686
247.36; 42.115332; 11680.222729886
248.38; 41.160744; 11722.122590808
249.40; 40.22135; 11763.066189756
250.42; 39.381144; 11803.154495091
251.44; 38.717522; 11842.56726145
252.45; 38.269617; 11881.524079782
253.47; 38.01886; 11920.225639099
254.49; 37.889371; 11958.795384006
255.51; 37.768629; 11997.242219004
256.53; 37.541654; 12035.458003069
257.54; 37.127164; 12073.25185363
258.56; 36.50358; 12110.410922739
259.58; 35.7163; 12146.768575246
260.60; 34.864009; 12182.258631457
261.61; 34.068676; 12216.939073724
262.63; 33.43902; 12250.978553007
263.65; 33.038939; 12284.610767092
264.67; 32.870511; 12318.07152899
265.69; 32.876273; 12351.538156396
266.70; 32.959439; 12385.089442775
267.72; 33.01533; 12418.697624296
268.74; 32.964186; 12452.253743385
269.76; 32.77546; 12485.617747641
270.78; 32.476596; 12518.677520874
271.79; 32.144068; 12551.398794952
272.81; 31.879751; 12583.851005926
273.83; 31.779864; 12616.201535776
274.85; 31.905668; 12648.680128797
275.87; 32.264308; 12681.523801775
276.88; 32.804949; 12714.917824285
277.90; 33.430791; 12748.948926991
278.92; 34.02298; 12783.582852974
279.94; 34.469342; 12818.671155589
280.96; 34.690049; 12853.984128161
281.97; 34.653993; 12889.260397566
282.99; 34.38297; 12924.260777797
284.01; 33.944613; 12958.814928669
285.03; 33.437927; 12992.85329562
286.05; 32.97643; 13026.421878458
287.06; 32.673017; 13059.681599572
288.08; 32.62859; 13092.896096275
289.10; 32.924193; 13126.411504488
290.12; 33.615102; 13160.630227577
291.14; 34.725569; 13195.979358074
292.15; 36.244427; 13232.874620261
293.17; 38.123495; 13271.682693313
294.19; 40.281549; 13312.687571601
295.21; 42.615583; 13356.068396373
296.23; 45.018422; 13401.895207576
297.24; 47.398331; 13450.144662984
298.26; 49.693983; 13500.730993079
299.28; 51.878302; 13553.540865449
300.30; 53.94794; 13608.457539911
301.32; 55.900634; 13665.36197303
302.33; 57.708328; 13724.106560825
303.35; 59.297278; 13784.468630825
304.37; 60.545507; 13846.101344035
305.39; 61.302612; 13908.504758162
306.41; 61.428642; 13971.036464759
307.42; 60.840591; 14032.969560988
308.44; 59.550375; 14093.589272666
309.46; 57.679146; 14152.304153888
310.48; 55.439793; 14208.739470777
311.49; 53.090133; 14262.782935652
312.51; 50.869912; 14314.566311333
313.53; 48.941232; 14364.386374034
314.55; 47.351772; 14412.588434428
315.57; 46.03298; 14459.448021964
316.58; 44.833785; 14505.086880758
317.60; 43.578388; 14549.447799558
318.62; 42.128794; 14592.333094221
319.64; 40.431619; 14633.490738129
320.66; 38.534719; 14672.717419147
321.67; 36.569927; 14709.944026332
322.69; 34.709693; 14745.276996362
323.71; 33.113555; 14778.985166556
324.73; 31.882489; 14811.440164861
325.75; 31.035014; 14843.032469888
326.76; 30.510338; 14874.090677105
327.78; 30.194375; 14904.827247852
328.80; 29.957431; 14935.322619655
329.82; 29.69001; 14965.545769019
330.84; 29.325792; 14995.39816016
331.85; 28.846773; 15024.762930358
332.87; 28.27237; 15053.542983354
333.89; 27.639356; 15081.678655484
334.91; 26.981337; 15109.144492623
335.93; 26.314983; 15135.932009304
336.94; 25.63645; 15162.028809638
337.96; 24.927196; 15187.403619776
338.98; 24.16519; 15212.00274043
340.00; 23.336435; 15235.758223904
341.02; 22.442537; 15258.603757977
342.03; 21.502233; 15280.492103716
343.05; 20.547181; 15301.408247574
344.07; 19.614106; 15321.3745609
345.09; 18.736134; 15340.447136819
346.11; 17.935854; 15358.705061991
347.12; 17.22171; 15376.236019264
348.14; 16.588217; 15393.122108559
349.16; 16.019503; 15409.429271758
350.18; 15.495018; 15425.202531332
351.20; 14.995923; 15440.467734303
352.21; 14.510623; 15455.238922527
353.23; 14.03809; 15469.529092016
354.25; 13.588132; 15483.361223971
355.27; 13.178445; 15496.776312416
356.28; 12.829131; 15509.835814278
357.30; 12.556149; 15522.617431948
358.32; 12.365587; 15535.205066195
359.34; 12.250553; 15547.675600358
360.36; 12.191777; 15560.086303085
361.37; 12.161955; 15572.466648484
362.39; 12.132669; 15584.817181531
363.41; 12.081903; 15597.116037133
364.43; 11.999967; 15609.33148523
365.45; 11.892099; 15621.437128656
366.46; 11.777048; 15633.425654932
367.48; 11.682084; 15645.317512843
368.50; 11.635876; 15657.162332961
369.52; 11.661111; 15669.032840649
370.54; 11.768673; 15681.012842044
371.55; 11.95463; 15693.182139936
372.57; 12.200518; 15705.601741014
373.59; 12.476698; 15718.302481205
374.61; 12.748021; 15731.279416452
375.63; 12.980728; 15744.493237692
376.64; 13.1494; 15757.878759974
377.66; 13.242772; 15771.359330184
378.68; 13.267329; 15784.864898805
379.70; 13.247862; 15798.350650699
380.72; 13.224567; 15811.812689294
381.73; 13.246963; 15825.297526276
382.75; 13.36562; 15838.90315058
383.77; 13.623344; 15852.771126811
384.79; 14.047757; 15867.071136824
385.81; 14.646928; 15881.981077061
386.82; 15.408933; 15897.666705823
387.84; 16.30508; 15914.264573176
388.86; 17.295487; 15931.870632431
389.88; 18.33514; 15950.535014016
390.90; 19.378689; 15970.261682763
391.91; 20.3831; 15991.010799433
392.93; 21.308482; 16012.701914461
393.95; 22.118354; 16035.21744446
394.97; 22.78101; 16058.407529274
395.99; 23.272986; 16082.098424557
397.00; 23.584399; 16106.106324524
398.02; 23.724423; 16130.256763722
399.04; 23.724289; 16154.407066298
400.06; 23.63533; 16178.466812588
401.07; 23.521047; 16202.410223593
402.09; 23.444341; 16226.275550989
403.11; 23.453275; 16250.149972852
404.13; 23.569916; 16274.143130088
405.15; 23.786359; 16298.356617393
406.16; 24.0699; 16322.858737063
407.18; 24.37612; 16347.672575627
408.20; 24.665609; 16372.781101143
409.22; 24.918339; 16398.146894696
410.24; 25.140205; 16423.738538108
411.25; 25.358896; 16449.552799905
412.27; 25.610245; 16475.62292415
413.29; 25.920004; 16502.008369404
414.31; 26.288141; 16528.768562075
415.33; 26.682244; 16555.929935252
416.34; 27.043501; 16583.459052101
417.36; 27.304015; 16611.253360893
418.38; 27.409706; 16639.15525842
419.40; 27.34041; 16666.986616448
420.42; 27.119269; 16694.592862389
421.43; 26.806984; 16721.881215038
422.45; 26.481935; 16748.83868238
423.47; 26.212496; 16775.521872486
424.49; 26.031136; 16802.020445598
425.51; 25.919821; 16828.405704708
426.52; 25.812627; 16854.681845203
427.54; 25.615616; 16880.757436926
428.56; 25.237942; 16906.448572796
429.58; 24.624051; 16931.51479449
430.60; 23.776198; 16955.717937963
431.61; 22.759608; 16978.886236668
432.63; 21.688389; 17000.964080906
433.65; 20.696663; 17022.032391136
434.67; 19.90417; 17042.293977628
435.69; 19.387123; 17062.029231757
436.70; 19.162947; 17081.5362853
437.72; 19.192618; 17101.073541933
438.74; 19.398385; 17120.820260936
439.76; 19.689986; 17140.863817093
440.78; 19.990351; 17161.213131678
441.79; 20.253022; 17181.829834407
442.81; 20.467176; 17202.664536201
443.83; 20.650788; 17223.686146981
444.85; 20.836337; 17244.896638766
445.87; 21.055164; 17266.329887143
446.88; 21.325874; 17288.038706632
447.90; 21.649586; 17310.077051252
448.92; 22.011699; 17332.4840114
449.94; 22.387491; 17355.273511214
450.95; 22.748177; 17378.430174041
451.97; 23.065038; 17401.909386929
452.99; 23.311141; 17425.639123032
454.01; 23.46199; 17449.522415942
455.03; 23.497066; 17473.441414732
456.04; 23.403574; 17497.265243126
457.06; 23.181913; 17520.863430087
458.08; 22.850672; 17544.124427798
459.10; 22.448141; 17566.97566699
460.12; 22.02805; 17589.399271006
461.13; 21.649306; 17611.437330731
462.15; 21.362101; 17633.18302781
463.17; 21.194583; 17654.75819893
464.19; 21.14465; 17676.282539792
465.21; 21.179831; 17697.842694049
466.22; 21.245493; 17719.469688843
467.24; 21.278675; 17741.130461543
468.26; 21.223128; 17762.734690462
469.28; 21.041111; 17784.153633524
470.30; 20.719235; 17805.244920989
471.31; 20.268218; 17825.87709249
472.33; 19.718571; 17845.949746927
473.35; 19.115148; 17865.408142703
474.37; 18.512762; 17884.253335158
475.39; 17.973334; 17902.549413882
476.40; 17.563338; 17920.428133725
477.42; 17.349612; 17938.089289807
478.44; 17.392479; 17955.794082879
479.46; 17.736972; 17973.849555167
480.48; 18.404904; 17992.584953494
481.49; 19.391224; 18012.324382504
482.51; 20.666954; 18033.362449567
483.53; 22.188281; 18055.949162157
484.55; 23.908244; 18080.286722374
485.57; 25.785549; 18106.535298934
486.58; 27.785572; 18134.819811865
487.60; 29.87167; 18165.2278826
488.62; 31.9896; 18197.791914632
489.64; 34.051915; 18232.455295108
490.66; 35.930905; 18269.031405436
491.67; 37.46663; 18307.170817916
492.69; 38.491448; 18346.353450586
493.71; 38.865808; 18385.917165496
494.73; 38.514846; 18425.123616616
495.74; 37.453555; 18463.249719541
496.76; 35.791134; 18499.683549018
497.78; 33.711632; 18534.000536063
498.80; 31.43586; 18566.000885269
499.82; 29.175719; 18595.700508701
500.83; 27.0944; 18623.281438732
501.85; 25.283363; 18649.018811012
502.87; 23.760885; 18673.206366912
503.89; 22.489561; 18696.099769674
504.91; 21.404334; 18717.888457691
505.92; 20.44041; 18738.695912681
506.94; 19.552216; 18758.599225104
507.96; 18.719302; 18777.654667009
508.98; 17.940593; 18795.917416401
510.00; 17.22247; 18813.449147769
511.01; 16.567396; 18830.314041568
512.03; 15.96815; 18846.568928782
513.05; 15.409327; 18862.254959065
514.07; 14.874205; 18877.396257807
515.09; 14.352933; 18892.006924468
516.10; 13.847941; 18906.103531177
517.12; 13.374141; 18919.717829667
518.14; 12.954033; 18932.904476194
519.16; 12.609937; 18945.740847634
520.18; 12.356479; 18958.319210108
521.19; 12.19598; 18970.734191051
522.21; 12.117928; 18983.069719249
523.23; 12.102101; 18995.389136283
524.25; 12.123723; 19007.730563429
525.27; 12.158803; 19020.107700419
526.28; 12.188251; 19032.514814067
527.30; 12.200224; 19044.934115378
528.32; 12.190894; 19057.343919328
529.34; 12.16417; 19069.726519426
530.36; 12.130794; 19082.075144739
531.37; 12.106914; 19094.399460981
532.39; 12.111935; 19106.72888797
533.41; 12.165475; 19119.112816349
534.43; 12.283553; 19131.616943002
535.45; 12.474637; 19144.315585072
536.46; 12.736599; 19157.280892843
537.48; 13.055694; 19170.571026344
538.50; 13.408329; 19184.220127021
539.52; 13.76559; 19198.232903165
540.54; 14.099609; 19212.585696625
541.55; 14.390095; 19227.234192267
542.57; 14.62909; 19242.125975079
543.59; 14.822465; 19257.214604391
544.61; 14.987621; 19272.471355433
545.62; 15.148174; 19287.891543248
546.64; 15.327406; 19303.494181549
547.66; 15.542699; 19319.315978831
548.68; 15.802713; 19335.402458751
549.70; 16.107876; 19351.799581082
550.71; 16.453364; 19368.548395639
551.73; 16.832739; 19385.683397399
552.75; 17.240313; 19403.233292355
553.77; 17.671247; 19421.221859466
554.79; 18.119885; 19439.667120644
555.80; 18.578213; 19458.57893986
556.82; 19.036719; 19477.957498089
557.84; 19.489014; 19497.796473512
558.86; 19.939591; 19518.094116806
559.88; 20.411925; 19538.87257571
560.89; 20.952944; 19560.201768189
561.91; 21.630454; 19582.220636864
562.93; 22.522511; 19605.147581047
563.95; 23.701032; 19629.274208454
564.97; 25.214755; 19654.941740722
565.98; 27.077528; 19682.505495663
567.00; 29.266248; 19712.297273339
568.02; 31.729122; 19744.59615035
569.04; 34.400768; 19779.614647918
570.06; 37.217924; 19817.500888887
571.07; 40.129456; 19858.350943798
572.09; 43.097114; 19902.221946593
573.11; 46.087826; 19949.137364929
574.13; 49.062266; 19999.080635035
575.15; 51.966154; 20051.979937491
576.16; 54.729409; 20107.692113864
577.18; 57.274606; 20165.995190898
578.20; 59.531903; 20226.596099526
579.22; 61.454801; 20289.154435371
580.24; 63.031004; 20353.317277838
581.25; 64.285166; 20418.756803002
582.27; 65.273957; 20485.20287438
583.29; 66.076781; 20552.466186462
584.31; 66.786212; 20620.451668209
