#Wavenumber (cm^-1);  Spectrum at 400.00 K (cm*km*mol^-1);  Integral (km*mol^-1)
0.00; 0.00078960924; 0.00080378813682668
1.02; 0.00082088066; 0.001639409226712
2.04; 0.00091356254; 0.0025693764665168
3.05; 0.001064276; 0.0036527635102842
4.07; 0.0012674683; 0.0049429915956603
5.09; 0.0015155879; 0.0064857946809334
6.11; 0.0017994227; 0.0083175292963624
7.13; 0.0021086547; 0.010464048759377
8.14; 0.0024326466; 0.012940377994747
9.16; 0.0027614162; 0.015751380570657
10.18; 0.0030866793; 0.018893486904531
11.20; 0.0034027624; 0.022357352152765
12.22; 0.0037071411; 0.026131061863565
13.23; 0.0040003692; 0.030203265038777
14.25; 0.0042852637; 0.034565478580358
15.27; 0.0045654107; 0.03921286964547
16.29; 0.0048433021; 0.044143142178679
17.31; 0.0051186514; 0.049353708391728
18.32; 0.0053875338; 0.054837985318026
19.34; 0.0056428849; 0.060582198610629
20.36; 0.0058765288; 0.066564251314476
21.38; 0.0060823773; 0.072755848968635
22.40; 0.0062599035; 0.079128160616158
23.41; 0.0064166708; 0.08566005464698
24.43; 0.0065687684; 0.092346777399711
25.45; 0.0067385153; 0.099206295144992
26.47; 0.0069496416; 0.10628073035887
27.48; 0.0072210522; 0.11363144994447
28.50; 0.0075609082; 0.12132812819672
29.52; 0.0079628509; 0.12943396676385
30.54; 0.0084056795; 0.1379905857376
31.56; 0.008856813; 0.14700643916774
32.57; 0.0092787726; 0.15645182925241
33.59; 0.0096370789; 0.16626195968825
34.61; 0.009907653; 0.17634752288447
35.63; 0.010082092; 0.18661065751229
36.65; 0.010169887; 0.19696316356956
37.66; 0.010197447; 0.20734372480459
38.68; 0.010204401; 0.2177313644886
39.70; 0.010237904; 0.22815310859614
40.72; 0.010345693; 0.23868457749466
41.74; 0.010568561; 0.24944291616208
42.75; 0.010933021; 0.26057225965801
43.77; 0.011445246; 0.27222302612646
44.79; 0.01208769; 0.2845277724324
45.81; 0.012819865; 0.29757784218293
46.83; 0.013584204; 0.31140597540551
47.84; 0.014316693; 0.32597975082262
48.86; 0.014960407; 0.34120879921711
49.88; 0.015478619; 0.35696536510414
50.90; 0.015863671; 0.37311389740187
51.92; 0.016138569; 0.38954226386216
52.93; 0.016350337; 0.40618620157585
53.95; 0.016556888; 0.42304039888722
54.97; 0.016811514; 0.44015379449805
55.99; 0.01715015; 0.45761190726539
57.01; 0.017585657; 0.4755133468623
58.02; 0.018110804; 0.49394936359506
59.04; 0.018708267; 0.51299357199756
60.06; 0.019363097; 0.53270436951109
61.08; 0.020072029; 0.55313682884635
62.10; 0.020845156; 0.57435629814225
63.11; 0.021698625; 0.59644456187093
64.13; 0.022640849; 0.61949196938166
65.15; 0.023657838; 0.6435746278929
66.17; 0.024704226; 0.66872246375446
67.19; 0.025704994; 0.69488903808893
68.20; 0.026569189; 0.72193532600948
69.22; 0.02721248; 0.74963645655613
70.24; 0.027581837; 0.7777135766013
71.26; 0.027674309; 0.80588482934885
72.27; 0.027543321; 0.83392274153536
73.29; 0.027289638; 0.86170241563833
74.31; 0.027038889; 0.88922683777319
75.33; 0.026911642; 0.91662172787037
76.35; 0.026994256; 0.94410071530276
77.36; 0.027318366; 0.97190963280268
78.38; 0.027854243; 1.0002640502526
79.40; 0.028519287; 1.0292954539865
80.42; 0.029198877; 1.0590186506278
81.44; 0.029773852; 1.0893271471645
82.45; 0.030147742; 1.1200162478676
83.47; 0.030267566; 1.1508273240602
84.49; 0.030134175; 1.181502613749
85.51; 0.029800934; 1.2118386788782
86.53; 0.029362216; 1.2417281473194
87.54; 0.028935083; 1.2711828127196
88.56; 0.028638389; 1.3003354574221
89.58; 0.028573286; 1.3294218292308
90.60; 0.028808138; 1.3587472701037
91.62; 0.029369574; 1.388644229251
92.63; 0.030240129; 1.419427376124
93.65; 0.031362065; 1.451352605179
94.67; 0.03264645; 1.4845852825793
95.69; 0.033986293; 1.5191818620798
96.71; 0.035272254; 1.5550874947965
97.72; 0.036409029; 1.5921503156579
98.74; 0.03732995; 1.6301505941185
99.76; 0.038006981; 1.6688400607518
100.78; 0.038453493; 1.7079840577625
101.80; 0.038718319; 1.747397635913
102.81; 0.038871611; 1.7869672587875
103.83; 0.038985519; 1.8266528348973
104.85; 0.039114759; 1.8664699721139
105.87; 0.039282903; 1.9064582726886
106.89; 0.039478983; 1.9466461735973
107.90; 0.039665934; 1.9870243828202
108.92; 0.039798335; 2.0275373706172
109.94; 0.039843303; 2.068096134197
110.96; 0.039796804; 2.1086075635253
111.98; 0.039688829; 2.1490090791333
112.99; 0.039574752; 2.1892944692187
114.01; 0.039515333; 2.2295193732524
115.03; 0.039552385; 2.2697819941457
116.05; 0.039689159; 2.3101838457472
117.07; 0.039883157; 2.3507831790185
118.08; 0.040054689; 2.3915571241126
119.10; 0.04010881; 2.432386162416
120.12; 0.039963417; 2.4730671965432
121.14; 0.039574201; 2.5133520254954
122.15; 0.038948599; 2.5530000189934
123.17; 0.038145084; 2.5918300687106
124.19; 0.037259349; 2.629758478419
125.21; 0.036403029; 2.6668151911111
126.23; 0.035682045; 2.7031379727072
127.24; 0.035180258; 2.7389499567602
128.26; 0.034950852; 2.7745284156955
129.28; 0.03501447; 2.8101716348661
130.30; 0.035361195; 2.8461678053829
131.32; 0.035953669; 2.8827670889002
132.33; 0.036730452; 2.9201571038886
133.35; 0.03761085; 2.9584433265603
134.37; 0.038503376; 2.9976381014456
135.39; 0.039319005; 3.0376631520559
136.41; 0.039987862; 3.0783690699832
137.42; 0.04047511; 3.1195709856394
138.44; 0.040790427; 3.1610938796709
139.46; 0.0409864; 3.2028162665795
140.48; 0.041144587; 3.2446996802765
141.50; 0.041352397; 3.286794636282
142.51; 0.041677684; 3.3292207202912
143.53; 0.04214907; 3.3721266551323
144.55; 0.042748218; 3.4156424968157
145.57; 0.043416008; 3.4598381194893
146.59; 0.044069795; 3.5046992686331
147.60; 0.044625495; 3.5501260969179
148.62; 0.045017494; 3.5959519629086
149.64; 0.045211315; 3.6419751302138
150.66; 0.045207525; 3.6879944402673
151.68; 0.045038665; 3.7338418572308
152.69; 0.044762661; 3.779408314978
153.71; 0.044455738; 3.8246623382392
154.73; 0.04420579; 3.8696619244826
155.75; 0.044105127; 3.9145590408557
156.77; 0.04424063; 3.9595940932205
157.78; 0.044680364; 4.0050767762348
158.80; 0.045458192; 4.0513512535851
159.82; 0.046560409; 4.098747740938
160.84; 0.047919619; 4.1475278451371
161.86; 0.04941985; 4.1978351203734
162.87; 0.050913737; 4.2496631072603
163.89; 0.05224843; 4.3028497547277
164.91; 0.05329372; 4.3571004615545
165.93; 0.053964808; 4.4120343078983
166.94; 0.054233937; 4.4672421153879
167.96; 0.054128701; 4.5223427977322
168.98; 0.053719112; 4.5770265361658
170.00; 0.05309848; 4.6310784974407
171.02; 0.052364147; 4.6843829398452
172.03; 0.05160285; 4.7369124146939
173.05; 0.050882891; 4.7887090022232
174.07; 0.050252626; 4.8398640068693
175.09; 0.049742979; 4.8905002129711
176.11; 0.049371269; 4.9407580348344
177.12; 0.049144295; 4.990784806887
178.14; 0.049059766; 5.0407255318048
179.16; 0.049106177; 5.0907135007188
180.18; 0.049261809; 5.1408598960713
181.20; 0.049493792; 5.1912424409041
182.21; 0.049758315; 5.2418942586839
183.23; 0.050003181; 5.292795339669
184.25; 0.050173855; 5.3438701589079
185.27; 0.05022345; 5.3949954642608
186.29; 0.050125665; 5.446021228446
187.30; 0.04988762; 5.4968046730361
188.32; 0.049557827; 5.5472524019798
189.34; 0.049224137; 5.5973604491498
190.36; 0.048998429; 5.647238735268
191.38; 0.048988891; 5.6971073121477
192.39; 0.049265958; 5.7472579312048
193.41; 0.049832163; 5.7979849225924
194.43; 0.050607299; 5.8495009696523
195.45; 0.051437126; 5.9018617440102
196.47; 0.052126843; 5.9549246207791
197.48; 0.052491925; 6.0083591356282
198.50; 0.052411773; 6.0617120588983
199.52; 0.051869095; 6.1145125590881
200.54; 0.050961332; 6.1663889959973
201.56; 0.049879007; 6.2171636723873
202.57; 0.048856682; 6.266897666066
203.59; 0.048111356; 6.3158729506819
204.61; 0.04778718; 6.3645182380888
205.63; 0.0479229; 6.413301682734
206.65; 0.048450471; 6.4626221710602
207.66; 0.049222853; 6.512728911784
208.68; 0.050060081; 6.563687914019
209.70; 0.050798197; 6.615398286715
210.72; 0.051326893; 6.6676468490424
211.74; 0.051607339; 6.7201808928551
212.75; 0.05166921; 6.7727779191893
213.77; 0.051592207; 6.8252965599742
214.79; 0.051480429; 6.8777014156183
215.81; 0.051437499; 6.9300625703465
216.82; 0.051547507; 6.9825357078742
217.84; 0.051863601; 7.0353306160346
218.86; 0.052403978; 7.088675604537
219.88; 0.053154494; 7.1427845857441
220.90; 0.054077518; 7.1978331658293
221.91; 0.055126574; 7.2539496389674
222.93; 0.056264943; 7.3112249230143
223.95; 0.057483907; 7.3697410594443
224.97; 0.058813956; 7.4296111288202
225.99; 0.060322071; 7.4910163945102
227.00; 0.062091216; 7.554222573194
228.02; 0.064184378; 7.6195595000811
229.04; 0.066602757; 7.6873582322733
230.06; 0.069252954; 7.7578547510477
231.08; 0.071938309; 7.8310848452919
232.09; 0.074383627; 7.9068041674782
233.11; 0.076291714; 7.9844658397053
234.13; 0.077418013; 8.0632740360857
235.15; 0.077640928; 8.1423091499634
236.17; 0.077003992; 8.220695890548
237.18; 0.075713273; 8.2977687349701
238.20; 0.074087276; 8.3731863852037
239.22; 0.072472486; 8.4469602486522
240.24; 0.071149766; 8.5193876403998
241.26; 0.070260623; 8.5909099224179
242.27; 0.069776201; 8.6619390838709
243.29; 0.069517964; 8.7327053709645
244.31; 0.069222184; 8.8031705669248
245.33; 0.068626617; 8.8730295019063
246.35; 0.067551672; 8.9417941895108
247.36; 0.065951772; 9.0089302470491
248.38; 0.063923702; 9.0740018168265
249.40; 0.061673241; 9.1367825145888
250.42; 0.059454051; 9.1973041724903
251.44; 0.057499679; 9.255836364609
252.45; 0.05596894; 9.3128103301974
253.47; 0.054918084; 9.3687145695771
254.49; 0.054303247; 9.4239929319159
255.51; 0.054007361; 9.4789700947254
256.53; 0.053879907; 9.5338175149065
257.54; 0.053776731; 9.5885599063826
258.56; 0.053589857; 9.6431120685089
259.58; 0.053262105; 9.6973305928353
260.60; 0.052786246; 9.7510647139299
261.61; 0.052192115; 9.8041940345133
262.63; 0.051526986; 9.856646282289
263.65; 0.050835054; 9.9083941738294
264.67; 0.050141376; 9.9594359305321
265.69; 0.049444585; 10.009768384833
266.70; 0.048720986; 10.059364246687
267.72; 0.047939993; 10.108165090928
268.74; 0.047087556; 10.15609819117
269.76; 0.046190761; 10.203118392375
270.78; 0.045334539; 10.249266996589
271.79; 0.044661763; 10.294730744439
272.81; 0.044351642; 10.339878802245
273.83; 0.044577881; 10.385257161895
274.85; 0.045455743; 10.431529146273
275.87; 0.046993157; 10.479366151777
276.88; 0.049062859; 10.529310025453
277.90; 0.051408587; 10.581641749145
278.92; 0.053689236; 10.636295074655
279.94; 0.055553066; 10.692845698495
280.96; 0.056723411; 10.750587683291
281.97; 0.057071726; 10.808684237991
282.99; 0.05665562; 10.866357214358
284.01; 0.055708711; 10.923066277802
285.03; 0.054583103; 10.978629521224
286.05; 0.053659618; 11.033252696948
287.06; 0.053250935; 11.08745985082
288.08; 0.053525132; 11.141946125889
289.10; 0.054470898; 11.197395149767
290.12; 0.055912853; 11.254312021075
291.14; 0.057570176; 11.312915976187
292.15; 0.059138944; 11.373116868955
293.17; 0.060372308; 11.434573273567
294.19; 0.061134775; 11.496805836371
295.21; 0.061416335; 11.559325015353
296.23; 0.061305845; 11.621731720142
297.24; 0.060936172; 11.683762113771
298.26; 0.060422033; 11.745269135817
299.28; 0.059812547; 11.806155728132
300.30; 0.059074281; 11.866290797148
301.32; 0.058109293; 11.925443549428
302.33; 0.056800412; 11.983263917951
303.35; 0.055066767; 12.03931951008
304.37; 0.052909444; 12.09317904114
305.39; 0.050430997; 12.144515620289
306.41; 0.047821702; 12.193196048879
307.42; 0.04531686; 12.239326657059
308.44; 0.043139051; 12.28324034929
309.46; 0.041443863; 12.325428413658
310.48; 0.040285973; 12.366437795482
311.49; 0.039615119; 12.406764277096
312.51; 0.039301393; 12.446771399629
313.53; 0.039179763; 12.486654707318
314.55; 0.039098175; 12.526454962052
315.57; 0.038953665; 12.566108111681
316.58; 0.03870629; 12.605509444493
317.60; 0.038369321; 12.644567757652
318.62; 0.037982662; 12.683232468224
319.64; 0.037581907; 12.721489228014
320.66; 0.037175942; 12.759332733187
321.67; 0.036741569; 12.796734064851
322.69; 0.036236219; 12.833620972413
323.71; 0.035622288; 12.869882924934
324.73; 0.034891889; 12.905401362107
325.75; 0.034080685; 12.940094028597
326.76; 0.033263872; 12.973955214566
327.78; 0.032534568; 13.00707400056
328.80; 0.031972076; 13.039620194011
329.82; 0.031611833; 13.071799675868
330.84; 0.031428702; 13.103792738518
331.85; 0.031340593; 13.135696109554
332.87; 0.031231985; 13.16748892305
333.89; 0.03098958; 13.199034977795
334.91; 0.030537763; 13.230121102707
335.93; 0.029861639; 13.260518962668
336.94; 0.029009903; 13.290049792064
337.96; 0.028077212; 13.318631182409
338.98; 0.027173062; 13.346292187202
340.00; 0.026388793; 13.373154840059
341.02; 0.025774516; 13.399392185554
342.03; 0.025333491; 13.425180586525
343.05; 0.025034498; 13.450664624897
344.07; 0.024835764; 13.475946360934
345.09; 0.024709736; 13.501099805561
346.11; 0.024658003; 13.526200588978
347.12; 0.024710001; 13.551354303709
348.14; 0.024905905; 13.576707440331
349.16; 0.025270834; 13.602432058918
350.18; 0.025791334; 13.628686523577
351.20; 0.026404714; 13.655565383375
352.21; 0.027007208; 13.683057555862
353.23; 0.027479863; 13.711030870288
354.25; 0.027724268; 13.739252978319
355.27; 0.027696165; 13.767446479167
356.28; 0.027425259; 13.795364209828
357.30; 0.027013997; 13.82286329343
358.32; 0.026615105; 13.849956321829
359.34; 0.0263947; 13.876824987051
360.36; 0.026492352; 13.903793058102
361.37; 0.026990053; 13.931267767144
362.39; 0.027898585; 13.959667323237
363.41; 0.029163716; 13.989354727237
364.43; 0.030688131; 14.020593920698
365.45; 0.032360451; 14.053535462968
366.46; 0.034081317; 14.088228772775
367.48; 0.035778813; 14.124650060519
368.50; 0.03741007; 14.162731897389
369.52; 0.038951183; 14.202382520757
370.54; 0.04038148; 14.243489124355
371.55; 0.041669511; 14.285906888619
372.57; 0.042766651; 14.329441493539
373.59; 0.043610667; 14.373835270588
374.61; 0.044137601; 14.418765443444
375.63; 0.044297228; 14.463858109715
376.64; 0.044066416; 14.508715819337
377.66; 0.043455936; 14.552952086797
378.68; 0.042509096; 14.596224512414
379.70; 0.041293689; 14.638259705777
380.72; 0.039890916; 14.678866936587
381.73; 0.03838539; 14.71794160677
382.75; 0.036858955; 14.755462432704
383.77; 0.035388665; 14.791486566984
384.79; 0.034046918; 14.826144860425
385.81; 0.032900602; 14.859636253645
386.82; 0.032006654; 14.892217646553
387.84; 0.031403501; 14.924185055083
388.86; 0.031100509; 14.955844031205
389.88; 0.031069601; 14.987471544642
390.90; 0.031243532; 15.019276111953
391.91; 0.031523681; 15.051365858504
392.93; 0.031797041; 15.0837338744
393.95; 0.031958611; 15.116266361471
394.97; 0.031933016; 15.148772793785
395.99; 0.031688993; 15.181030821186
397.00; 0.031242501; 15.212834338772
398.02; 0.030647983; 15.244032662668
399.04; 0.029981239; 15.274552270338
400.06; 0.029319931; 15.304398694541
401.07; 0.028727948; 15.333642505873
402.09; 0.028247715; 15.362397460604
403.11; 0.027900925; 15.390799398245
404.13; 0.027694789; 15.418991498461
405.15; 0.027629062; 15.447116691113
406.16; 0.027699652; 15.475313741232
407.18; 0.027897163; 15.503711848953
408.20; 0.028202014; 15.532420282318
409.22; 0.028580228; 15.561513721115
410.24; 0.028984301; 15.591018488945
411.25; 0.029361526; 15.620907255396
412.27; 0.029668515; 15.651108523905
413.29; 0.029887158; 15.681532361184
414.31; 0.030035472; 15.712107175329
415.33; 0.030167836; 15.742816730347
416.34; 0.03036267; 15.773724617933
417.36; 0.030700437; 15.80497633797
418.38; 0.031238914; 15.836776203998
419.40; 0.031994217; 15.869344936157
420.42; 0.032934358; 15.902870691387
421.43; 0.033987649; 15.937468651472
422.45; 0.03506286; 15.973161129996
423.47; 0.03607375; 16.009882651269
424.49; 0.036959195; 16.047505516676
425.51; 0.037692134; 16.08587448214
426.52; 0.038275161; 16.124836944589
427.54; 0.03872585; 16.164258189234
428.56; 0.039058771; 16.204018332479
429.58; 0.03927209; 16.243995625096
430.60; 0.039344363; 16.284046488609
431.61; 0.039242659; 16.323993822158
432.63; 0.038938394; 16.36363142717
433.65; 0.038424112; 16.402745514786
434.67; 0.037724152; 16.441147073247
435.69; 0.036894691; 16.478704276418
436.70; 0.036012893; 16.515363847174
437.72; 0.035159089; 16.551154282695
438.74; 0.034398379; 16.58617034778
439.76; 0.03376789; 16.6205446024
440.78; 0.033273441; 16.654415529274
441.79; 0.032895595; 16.687901825021
442.81; 0.03260172; 16.721088969402
443.83; 0.032358945; 16.754028979534
444.85; 0.032143347; 16.786749520065
445.87; 0.031942977; 16.819266092028
446.88; 0.031755235; 16.851591551308
447.90; 0.031581435; 16.883740089849
448.92; 0.031422165; 16.915726497731
449.94; 0.031276163; 16.947564281657
450.95; 0.031143381; 16.979266900007
451.97; 0.031030758; 17.010854872711
452.99; 0.030957926; 17.04236870561
454.01; 0.030960149; 17.073884801564
455.03; 0.031086982; 17.105530007845
456.04; 0.031396861; 17.137490657794
457.06; 0.031949172; 17.170013536365
458.08; 0.032795756; 17.203398200673
459.10; 0.033973325; 17.237981579054
460.12; 0.03549734; 17.274116339439
461.13; 0.037357316; 17.312144475552
462.15; 0.0395137; 17.352367717495
463.17; 0.041897399; 17.395017461347
464.19; 0.04441398; 17.440228976138
465.21; 0.046954636; 17.488026768923
466.22; 0.049414468; 17.538328565241
467.24; 0.051715666; 17.590972881444
468.26; 0.053829674; 17.64576916681
469.28; 0.055790231; 17.702561214321
470.30; 0.057689694; 17.761286833691
471.31; 0.059655136; 17.822013187928
472.33; 0.061807384; 17.884930438213
473.35; 0.064213364; 17.950296871747
474.37; 0.066846745; 18.018343973265
475.39; 0.069571676; 18.089164937305
476.40; 0.072158441; 18.162619116682
477.42; 0.074329753; 18.238283597678
478.44; 0.075825538; 18.315470723586
479.46; 0.076466623; 18.393310446533
480.48; 0.076196951; 18.470875654601
481.49; 0.075090683; 18.547314729444
482.51; 0.073322633; 18.621954005504
483.53; 0.07111349; 18.694344469758
484.55; 0.068670172; 18.764247741869
485.57; 0.066142737; 18.831578193486
486.58; 0.063612008; 18.896332473117
487.60; 0.061109231; 18.958539033594
488.62; 0.058655816; 19.018248123496
489.64; 0.056303119; 19.07556226865
490.66; 0.054152528; 19.130687205333
491.67; 0.05234497; 19.183972126185
492.69; 0.051022527; 19.235910856531
493.71; 0.050277586; 19.287091269093
494.73; 0.050111335; 19.338102446028
495.74; 0.050420695; 19.389428538028
496.76; 0.051021973; 19.44136670474
497.78; 0.051705015; 19.494000178951
498.80; 0.052299337; 19.547238647611
499.82; 0.052728632; 19.600914120018
500.83; 0.053034147; 19.654900593448
501.85; 0.053358896; 19.709217646702
502.87; 0.053898841; 19.764084340953
503.89; 0.054838516; 19.819907583735
504.91; 0.0562929; 19.877211327048
505.92; 0.058273667; 19.936531405928
506.94; 0.06068823; 19.998309405581
507.96; 0.063368547; 20.062815851727
508.98; 0.066117735; 20.130120853087
510.00; 0.068758942; 20.200114488808
511.01; 0.071172884; 20.272565413283
512.03; 0.073316175; 20.347198115411
513.05; 0.075219078; 20.423767891085
514.07; 0.076966347; 20.502116311366
515.09; 0.078667304; 20.582196232594
516.10; 0.080421758; 20.664062112295
517.12; 0.082287961; 20.747827705635
518.14; 0.084258495; 20.833599217647
519.16; 0.086249786; 20.921397778195
520.18; 0.088109933; 21.011089887707
521.19; 0.089646707; 21.102346367357
522.21; 0.090672597; 21.194647158314
523.23; 0.091057702; 21.28733996966
524.25; 0.090776475; 21.379746503748
525.27; 0.089933163; 21.471294582795
526.28; 0.08875492; 21.56164326149
527.30; 0.087550325; 21.650765714015
528.32; 0.086641917; 21.738963446988
529.34; 0.086290486; 21.826803438562
530.36; 0.086632709; 21.914991797948
531.37; 0.08765068; 22.004216407694
532.39; 0.089182707; 22.095000555148
533.41; 0.090972599; 22.187606734896
534.43; 0.092743611; 22.282015728787
535.45; 0.094276766; 22.377985408013
536.46; 0.095472975; 22.475172776435
537.48; 0.096383772; 22.573287296737
538.50; 0.097204123; 22.672236899044
539.52; 0.098229966; 22.772230765823
540.54; 0.099790508; 22.873813196541
541.55; 0.10216977; 22.977817611075
542.57; 0.10553336; 23.085246016821
543.59; 0.10987543; 23.19709446153
544.61; 0.11499748; 23.314156936314
545.62; 0.12052563; 23.436846824423
546.64; 0.12596564; 23.565074413453
547.66; 0.1307871; 23.6982100417
548.68; 0.13452005; 23.835145649753
