#Wavenumber (cm^-1); Spectrum (K*cm*km*mol^-1); Integral (K*km*mol^-1)
0.00; 0.18104563; 0.18429664263254
1.02; 0.19507468; 0.38287424724683
2.04; 0.23618457; 0.62329994750107
3.05; 0.3016221; 0.93033823431819
4.07; 0.38735303; 1.3246469037234
5.09; 0.48876325; 1.8221867996759
6.11; 0.60141732; 2.4344036777331
7.13; 0.72172329; 3.1690868469367
8.14; 0.84738139; 4.0316845356167
9.16; 0.97753943; 5.0267774898261
10.18; 1.1126287; 6.1593855113797
11.20; 1.2539054; 7.4358071042498
12.22; 1.4027754; 8.8637719579946
13.23; 1.560036; 10.451821335676
14.25; 1.7252139; 12.208014606782
15.27; 1.8961975; 14.138261879686
16.29; 2.0693277; 16.244748134696
17.31; 2.2400029; 18.524974442412
18.32; 2.4037033; 20.971840648552
19.34; 2.5571618; 23.574921058924
20.36; 2.699306; 26.322698073101
21.38; 2.8315958; 29.205140400431
22.40; 2.9575438; 32.215792386515
23.41; 3.0814722; 35.352598142024
24.43; 3.206865; 38.617048291312
25.45; 3.3348856; 42.011817902388
26.47; 3.4636534; 45.537667617461
27.48; 3.5886642; 49.190772886736
28.50; 3.7043551; 52.961646535978
29.52; 3.806381; 56.836378185633
30.54; 3.8938494; 60.800148842654
31.56; 3.9706967; 64.842146758104
32.57; 4.045623; 68.960416390304
33.59; 4.1304669; 73.165053442351
34.61; 4.2374438; 77.478588377027
35.63; 4.3760811; 81.933250147859
36.65; 4.550814; 86.565782398483
37.66; 4.7599953; 91.41125222539
38.68; 4.9966013; 96.497576785439
39.70; 5.2503449; 101.84220131083
40.72; 5.5104575; 107.45160926604
41.74; 5.7682224; 113.32341071077
42.75; 6.0184891; 119.44997291235
43.77; 6.2598118; 125.8221911884
44.79; 6.4933538; 132.43214514773
45.81; 6.7211145; 139.27394968723
46.83; 6.9442035; 146.34284916181
47.84; 7.1617778; 153.6332298687
48.86; 7.3709317; 161.13652024282
49.88; 7.5674289; 168.83983629564
50.90; 7.746857; 176.72580245119
51.92; 7.9056792; 184.77344269028
52.93; 8.0417806; 192.95962828424
53.95; 8.1543962; 201.26045171661
54.97; 8.2436224; 209.65210356831
55.99; 8.309926; 218.11124964697
57.01; 8.3540719; 226.61533439772
58.02; 8.3776879; 235.14345919827
59.04; 8.3843505; 243.67836620412
60.06; 8.3807475; 252.20960553265
61.08; 8.3772928; 260.7373280602
62.10; 8.3876332; 269.27557676221
63.11; 8.4268051; 277.85370069819
64.13; 8.5082651; 286.51474742579
65.15; 8.6404921; 295.3103955024
66.17; 8.8241322; 304.29298130571
67.19; 9.0506355; 313.50613766394
68.20; 9.3029678; 322.97615747135
69.22; 9.5583914; 332.70618742535
70.24; 9.7926746; 342.67470762475
71.26; 9.9846509; 352.83865141162
72.27; 10.119952; 363.14032622356
73.29; 10.193052; 373.51641319912
74.31; 10.207339; 383.90704396592
75.33; 10.173612; 394.26334181607
76.35; 10.107827; 404.55267324779
77.36; 10.029033; 414.76179637126
78.38; 9.958081; 424.89869309403
79.40; 9.9170856; 434.99385830723
80.42; 9.9290437; 445.10119637243
81.44; 10.016683; 455.29774698331
82.45; 10.199819; 465.6807226785
83.47; 10.491158; 476.36026893341
84.49; 10.891358; 487.44720165289
85.51; 11.384966; 499.03660592012
86.53; 11.939093; 511.19008697814
87.54; 12.506263; 523.92092291045
88.56; 13.031765; 537.1866968744
89.58; 13.46435; 550.89282451744
90.60; 13.767827; 564.90787869071
91.62; 13.930369; 579.08839358998
92.63; 13.968646; 593.30787290019
93.65; 13.925088; 607.48301192188
94.67; 13.858461; 621.59032747945
95.69; 13.829891; 635.66856004687
96.71; 13.887889; 649.80583185748
97.72; 14.056357; 664.11459652849
98.74; 14.328819; 678.70071558707
99.76; 14.670414; 693.63456350161
100.78; 15.027025; 708.9314264151
101.80; 15.338948; 724.54581350204
102.81; 15.555301; 740.38043851013
103.83; 15.645322; 756.30670096424
104.85; 15.603751; 772.19064631093
105.87; 15.449333; 787.91740036981
106.89; 15.217493; 803.40815190004
107.90; 14.949852; 818.62645587692
108.92; 14.683895; 833.57402691097
109.94; 14.445766; 848.27919337027
110.96; 14.247841; 862.78288075856
111.98; 14.091043; 877.1269546042
112.99; 13.970324; 891.34814174133
114.01; 13.880843; 905.47824066021
115.03; 13.822412; 919.5488591982
116.05; 13.800659; 933.59733412801
117.07; 13.82469; 947.670272103
118.08; 13.902352; 961.82226702043
119.10; 14.035; 976.10929094474
120.12; 14.213749; 990.57827357147
121.14; 14.418591; 1005.2557766055
122.15; 14.620713; 1020.1390315078
123.17; 14.787383; 1035.191948866
124.19; 14.888088; 1050.3473797399
125.21; 14.900478; 1065.5154233708
126.23; 14.814918; 1080.5963704546
127.24; 14.636956; 1095.4961599718
128.26; 14.387464; 1110.1419774665
129.28; 14.100484; 1124.4956615237
130.30; 13.818958; 1138.5627642273
131.32; 13.588652; 1152.3954250966
132.33; 13.450849; 1166.0878086764
133.35; 13.434839; 1179.7638946023
134.37; 13.551678; 1193.5589176129
135.39; 13.790917; 1207.5974759703
136.41; 14.121675; 1221.9727313534
137.42; 14.498507; 1236.731586117
138.44; 14.871177; 1251.8698025636
139.46; 15.196047; 1267.3387231459
140.48; 15.446021; 1283.062105971
141.50; 15.616051; 1298.958572076
142.51; 15.722427; 1314.96332447
143.53; 15.795908; 1331.0428776793
144.55; 15.870759; 1347.1986253194
145.57; 15.973094; 1363.4585461566
146.59; 16.112192; 1379.8600623536
147.60; 16.277416; 1396.4297699027
148.62; 16.441563; 1413.166571605
149.64; 16.569344; 1430.0334483316
150.66; 16.628192; 1446.9602305441
151.68; 16.598035; 1463.8563137735
152.69; 16.477244; 1480.6294375476
153.71; 16.28341; 1497.2052467569
154.73; 16.0492; 1513.5426396131
155.75; 15.814927; 1529.6415531619
156.77; 15.620096; 1545.5421368504
157.78; 15.496038; 1561.3164350602
158.80; 15.461101; 1577.0551682834
159.82; 15.518913; 1592.8527521239
160.84; 15.659491; 1608.7934381495
161.86; 15.862427; 1624.9407039079
162.87; 16.101248; 1641.3310798609
163.89; 16.348057; 1657.9726962919
164.91; 16.57768; 1674.8480588758
165.93; 16.770737; 1691.9199455834
166.94; 16.915205; 1709.1388939419
167.96; 17.006317; 1726.4505907367
168.98; 17.045006; 1743.8016715799
170.00; 17.035436; 1761.143009842
171.02; 16.982461; 1778.4304218934
172.03; 16.889892; 1795.6236031052
173.05; 16.760171; 1812.6847342109
174.07; 16.59557; 1829.5783086379
175.09; 16.400433; 1846.2732414705
176.11; 16.183517; 1862.7473629555
177.12; 15.959351; 1878.9932935141
178.14; 15.747765; 1895.0238389088
179.16; 15.571313; 1910.8747639111
180.18; 15.451033; 1926.603248692
181.20; 15.401606; 1942.2814192647
182.21; 15.427334; 1957.9857800607
183.23; 15.520275; 1973.784750786
184.25; 15.661421; 1989.7274011479
185.27; 15.825; 2005.8365678102
186.29; 15.985088; 2022.1086979228
187.30; 16.122888; 2038.5211023058
188.32; 16.232588; 2055.0451760801
189.34; 16.323811; 2071.6621116336
190.36; 16.419377; 2088.376328429
191.38; 16.548339; 2105.2218235189
192.39; 16.735812; 2122.2581584138
193.41; 16.992353; 2139.5556408637
194.43; 17.306332; 2157.1727401131
195.45; 17.6423; 2175.1318405279
196.47; 17.946878; 2193.4009881249
197.48; 18.161442; 2211.8885527786
198.50; 18.238566; 2230.4546262725
199.52; 18.157547; 2248.9382259128
200.54; 17.934095; 2267.1943602771
201.56; 17.620595; 2285.1313658713
202.57; 17.296008; 2302.7379559042
203.59; 17.047569; 2320.0916459203
204.61; 16.949112; 2337.3451106035
205.63; 17.04202; 2354.6931517676
206.65; 17.324205; 2372.3284450736
207.66; 17.750208; 2390.3973909959
208.68; 18.242315; 2408.9672807756
209.70; 18.70946; 2428.0127040005
210.72; 19.068637; 2447.4237532466
211.74; 19.263131; 2467.032789318
212.75; 19.273131; 2486.652005156
213.77; 19.116669; 2506.1119494505
214.79; 18.841619; 2525.2919049633
215.81; 18.511764; 2544.1360819209
216.82; 18.191161; 2562.6538991295
217.84; 17.930997; 2580.9068798302
218.86; 17.761922; 2598.9877504228
219.88; 17.693053; 2616.9985144393
220.90; 17.716816; 2635.033468524
221.91; 17.817337; 2653.1707488707
222.93; 17.979236; 2671.4728353764
223.95; 18.193897; 2689.9934374822
224.97; 18.461252; 2708.7861949656
225.99; 18.786661; 2727.9102054816
227.00; 19.174137; 2747.428649333
228.02; 19.618406; 2767.3993405536
229.04; 20.098853; 2787.8591053885
230.06; 20.577876; 2808.8064953421
231.08; 21.004929; 2830.1886065651
232.09; 21.325671; 2851.8972197696
233.11; 21.494006; 2873.7771907129
234.13; 21.483705; 2895.6466753747
235.15; 21.296301; 2917.3253912474
236.17; 20.962919; 2938.6647379635
237.18; 20.539372; 2959.5729322552
238.20; 20.09571; 2980.0294980871
239.22; 19.702763; 3000.0860611036
240.24; 19.41885; 3019.8536123927
241.26; 19.279529; 3039.4793405178
242.27; 19.29234; 3059.1181096559
243.29; 19.437247; 3078.904388084
244.31; 19.672329; 3098.9299697941
245.33; 19.943377; 3119.2314673993
246.35; 20.195507; 3139.7896222764
247.36; 20.3846; 3160.5402654949
248.38; 20.486385; 3181.394520941
249.40; 20.501207; 3202.2638651934
250.42; 20.453206; 3223.0843464834
251.44; 20.383699; 3243.8340725242
252.45; 20.340023; 3264.5393377802
253.47; 20.362469; 3285.2674524209
254.49; 20.472841; 3306.1079208787
255.51; 20.668038; 3327.1470915046
256.53; 20.920813; 3348.4435763694
257.54; 21.187674; 3370.0117140761
258.56; 21.421539; 3391.8179160011
259.58; 21.585077; 3413.79059283
260.60; 21.660378; 3435.8399231778
261.61; 21.651909; 3457.8806323688
262.63; 21.582206; 3479.8503863301
263.65; 21.482453; 3501.7185965068
264.67; 21.381943; 3523.4844920212
265.69; 21.300596; 3545.1675797568
266.70; 21.247204; 3566.7963166562
267.72; 21.223424; 3588.4008466139
268.74; 21.230946; 3610.0130337897
269.76; 21.277814; 3631.6729302327
270.78; 21.380227; 3653.4370790929
271.79; 21.558179; 3675.3823752312
272.81; 21.82611; 3697.600413115
273.83; 22.182205; 3720.1809408067
274.85; 22.600947; 3743.1877296122
275.87; 23.032611; 3766.6339336981
276.88; 23.410964; 3790.4652848446
277.90; 23.667403; 3814.5576801902
278.92; 23.747414; 3838.7315230646
279.94; 23.624386; 3862.7801283449
280.96; 23.306772; 3886.5054160201
281.97; 22.836838; 3909.7523314738
282.99; 22.281897; 3932.4343407386
284.01; 21.720961; 3954.5453416832
285.03; 21.230569; 3976.1571450758
286.05; 20.873013; 3997.4049713079
287.06; 20.688807; 4018.465283781
288.08; 20.693673; 4039.5305503026
289.10; 20.879158; 4060.7846318573
290.12; 21.215592; 4082.3811886398
291.14; 21.656352; 4104.4264203494
292.15; 22.142881; 4126.9669172758
293.17; 22.61036; 4149.9832883259
294.19; 22.994027; 4173.3902154802
295.21; 23.23588; 4197.0433387296
296.23; 23.291205; 4220.7527803447
297.24; 23.134095; 4244.3022911347
298.26; 22.761186; 4267.4721967217
299.28; 22.193047; 4290.0637609991
300.30; 21.472997; 4311.9223450483
301.32; 20.663366; 4332.9567597696
302.33; 19.839378; 4353.1523900111
303.35; 19.080973; 4372.5759969552
304.37; 18.463174; 4391.3707116528
305.39; 18.046041; 4409.7408030192
306.41; 17.865796; 4427.9274124151
307.42; 17.92903; 4446.1783913417
308.44; 18.211724; 4464.7171402752
309.46; 18.663952; 4483.7162377614
310.48; 19.219742; 4503.2811057637
311.49; 19.810017; 4523.4468477818
312.51; 20.375455; 4544.1881820395
313.53; 20.875987; 4565.4390360337
314.55; 21.294577; 4587.1159966319
315.57; 21.634769; 4609.1392576703
316.58; 21.913403; 4631.4461561839
317.60; 22.15134; 4653.9952648008
318.62; 22.36533; 4676.7622054416
319.64; 22.563319; 4699.7306907595
320.66; 22.743929; 4722.8830287156
321.67; 22.899183; 4746.1934083678
322.69; 23.018628; 4769.6253787343
323.71; 23.092984; 4793.1330400097
324.73; 23.116305; 4816.6644405493
325.75; 23.086807; 4840.1658134558
326.76; 23.007272; 4863.5862230422
327.78; 22.88593; 4886.8831124372
328.80; 22.737943; 4910.0293575794
329.82; 22.58649; 4933.0214302573
330.84; 22.461778; 4955.8865505734
331.85; 22.396508; 4978.6852287951
332.87; 22.417646; 5001.5054252353
333.89; 22.536197; 5024.4463012662
334.91; 22.738332; 5047.592942535
335.93; 22.981754; 5070.9873759892
336.94; 23.200091; 5094.6040671434
337.96; 23.315712; 5118.3384561789
338.98; 23.258293; 5142.0143947438
340.00; 22.984065; 5165.4111809944
341.02; 22.489866; 5188.3048943458
342.03; 21.817324; 5210.5139887578
343.05; 21.045453; 5231.9373514752
344.07; 20.273578; 5252.5749789101
345.09; 19.599525; 5272.5264494637
346.11; 19.099364; 5291.96877752
347.12; 18.814236; 5311.1208577987
348.14; 18.747252; 5330.2047512283
349.16; 18.870111; 5349.4137099421
350.18; 19.136168; 5368.8935033016
351.20; 19.495117; 5388.7386910208
352.21; 19.904681; 5409.0007969086
353.23; 20.336412; 5429.7023872154
354.25; 20.775132; 5450.8505748391
355.27; 21.213715; 5472.4452217586
356.28; 21.646202; 5494.4801212902
357.30; 22.062164; 5516.9384526822
358.32; 22.444295; 5539.7857765385
359.34; 22.769656; 5562.9643040086
360.36; 23.013723; 5586.3912804752
361.37; 23.155597; 5609.9626787837
362.39; 23.182759; 5633.5617266405
363.41; 23.094218; 5657.0706438941
364.43; 22.901647; 5680.3835321908
365.45; 22.628628; 5703.4184990198
366.46; 22.308402; 5726.1274896558
367.48; 21.980463; 5748.5026525354
368.50; 21.686198; 5770.5782659982
369.52; 21.463724; 5792.4274106857
370.54; 21.34226; 5814.1529106242
371.55; 21.336732; 5835.8727832663
372.57; 21.443709; 5857.7015533445
373.59; 21.639937; 5879.7300752079
374.61; 21.884508; 5902.0075596779
375.63; 22.124999; 5924.5298537264
376.64; 22.306935; 5947.2373511945
377.66; 22.384874; 5970.0241868631
378.68; 22.33269; 5992.7579012743
379.70; 22.150512; 6015.3061670877
380.72; 21.866352; 6037.5651701042
381.73; 21.531658; 6059.4834687815
382.75; 21.211571; 6081.0759325878
383.77; 20.972038; 6102.4245621564
384.79; 20.866809; 6123.6660737711
385.81; 20.927393; 6144.9692564386
386.82; 21.158226; 6166.5074171803
387.84; 21.537921; 6188.4320912996
388.86; 22.025814; 6210.8534193436
389.88; 22.571752; 6233.8304885362
390.90; 23.126432; 6257.3721988493
391.91; 23.649809; 6281.4466835322
392.93; 24.115959; 6305.995689304
393.95; 24.514048; 6330.9499326128
394.97; 24.846089; 6356.2421792077
395.99; 25.122872; 6381.8161791852
397.00; 25.359484; 6407.6310391779
398.02; 25.571445; 6433.6616667596
399.04; 25.771965; 6459.8964147199
400.06; 25.970364; 6486.3331248201
401.07; 26.171636; 6512.9747207207
402.09; 26.377192; 6539.8255635784
403.11; 26.586976; 6566.8899574545
404.13; 26.80295; 6594.1742040502
405.15; 27.033431; 6621.6930701906
406.16; 27.296972; 6649.4802096731
407.18; 27.623883; 6677.6001309226
408.20; 28.053471; 6706.1573533946
409.22; 28.625996; 6735.2973822721
410.24; 29.37013; 6765.1949072578
411.25; 30.288729; 6796.0275264308
412.27; 31.347384; 6827.9378104521
413.29; 32.470461; 6860.9913389451
414.31; 33.547951; 6895.1417054805
415.33; 34.453468; 6930.2138488464
416.34; 35.07014; 6965.9137379975
417.36; 35.318055; 7001.8659937585
418.38; 35.175623; 7037.6732598239
419.40; 34.688344; 7072.9844972242
420.42; 33.961803; 7107.5561475647
421.43; 33.140295; 7141.2915380914
422.45; 32.376768; 7174.2496905236
423.47; 31.802291; 7206.6230503323
424.49; 31.503136; 7238.6918837292
425.51; 31.510845; 7270.7685641266
426.52; 31.806351; 7303.1460574088
427.54; 32.334869; 7336.0615591405
428.56; 33.025346; 7369.6799360505
429.58; 33.807816; 7404.0948336226
430.60; 34.623923; 7439.3404936391
431.61; 35.429329; 7475.4060220439
432.63; 36.190246; 7512.2461311271
433.65; 36.878536; 7549.7868895764
434.67; 37.469822; 7587.9295510737
435.69; 37.947017; 7626.5579768148
436.70; 38.308472; 7665.5543480535
437.72; 38.576972; 7704.8240407709
438.74; 38.804455; 7744.3253013552
439.76; 39.068175; 7784.0950173409
440.78; 39.456954; 7824.2604934804
441.79; 40.050044; 7865.0297105295
442.81; 40.894471; 7906.6585172532
443.83; 41.988152; 7949.4006442588
444.85; 43.274956; 7993.4526822677
445.87; 44.654333; 8038.9088661811
446.88; 46.003525; 8085.7384692991
447.90; 47.206194; 8133.7923382443
448.92; 48.17915; 8182.8366337659
449.94; 48.889521; 8232.6040565603
450.95; 49.358008; 8282.8483783175
451.97; 49.648497; 8333.3884060679
452.99; 49.84874; 8384.1322718136
454.01; 50.049219; 8435.080217514
455.03; 50.327081; 8486.3110146504
456.04; 50.739087; 8537.9612155521
457.06; 51.323405; 8590.2062267645
458.08; 52.106269; 8643.2481601147
459.10; 53.107798; 8697.3096064254
460.12; 54.342287; 8752.6277097631
461.13; 55.811678; 8809.4415894982
462.15; 57.495144; 8867.9691651513
463.17; 59.34097; 8928.3757117464
464.19; 61.267412; 8990.7432932227
465.21; 63.176538; 9055.0542828629
466.22; 64.979865; 9121.2009811222
467.24; 66.62893; 9189.0263567456
468.26; 68.140129; 9258.3900674305
469.28; 69.60306; 9329.2429789027
470.30; 71.165895; 9401.6867891083
471.31; 72.99873; 9475.9963459371
472.33; 75.244061; 9552.5915530251
473.35; 77.969392; 9631.9610294939
474.37; 81.138053; 9714.5560658944
475.39; 84.609738; 9800.6851280161
476.40; 88.173139; 9890.4415786169
477.42; 91.602267; 9983.6887336324
478.44; 94.71936; 10080.108954819
479.46; 97.443897; 10179.302636772
480.48; 99.810797; 10280.905721191
481.49; 101.95059; 10384.687027384
482.51; 104.03721; 10490.592416575
483.53; 106.22058; 10598.720383167
484.55; 108.56766; 10709.237580494
485.57; 111.03352; 10822.264913988
486.58; 113.47457; 10937.777134244
487.60; 115.70149; 11055.556260753
488.62; 117.55441; 11175.221575745
489.64; 118.97367; 11296.331642372
490.66; 120.03884; 11418.526004861
491.67; 120.95795; 11541.655982632
492.69; 122.00584; 11665.852663064
493.71; 123.42862; 11791.497672823
494.73; 125.3453; 11919.093781884
495.74; 127.68116; 12049.067690462
496.76; 130.15924; 12181.564182039
497.78; 132.35818; 12316.299093921
498.80; 133.82202; 12452.524132212
499.82; 134.18939; 12589.123143026
500.83; 133.30088; 12724.817682253
501.85; 131.24918; 12858.423686143
502.87; 128.3548; 12989.083338238
503.89; 125.0741; 13116.403378078
504.91; 121.86924; 13240.461010029
505.92; 119.08176; 13361.681101041
506.94; 116.84951; 13480.628864038
507.96; 115.09132; 13597.786857819
508.98; 113.55984; 13713.38587357
510.00; 111.94082; 13827.33680172
511.01; 109.96247; 13939.27384863
512.03; 107.4784; 14048.682218415
513.05; 104.50007; 14155.058783314
514.07; 101.17451; 14258.050068767
515.09; 97.722823; 14357.527685732
516.10; 94.367028; 14453.589248431
517.12; 91.272732; 14546.50095058
518.14; 88.524884; 14636.615462043
519.16; 86.137849; 14724.300075284
520.18; 84.086694; 14809.896701741
521.19; 82.339754; 14893.715018648
522.21; 80.875466; 14976.042752874
523.23; 79.677058; 15057.150559344
524.25; 78.711539; 15137.275509558
525.27; 77.908372; 15216.582870835
526.28; 77.15409; 15295.122405345
527.30; 76.311551; 15372.804270931
528.32; 75.260102; 15449.415806724
529.34; 73.941441; 15524.685003055
530.36; 72.390888; 15598.375802742
531.37; 70.737733; 15670.383762639
532.39; 69.170005; 15740.795842958
533.41; 67.873505; 15809.888142288
534.43; 66.966308; 15878.056954521
535.45; 66.453076; 15945.703318467
536.46; 66.217058; 16013.109426311
537.48; 66.053959; 16080.349506508
538.50; 65.736314; 16147.266237404
539.52; 65.085744; 16213.520716475
540.54; 64.027783; 16278.698236804
541.55; 62.610688; 16342.433214983
542.57; 60.983031; 16404.511309202
543.59; 59.339594; 16464.91645513
544.61; 57.855643; 16523.811003056
545.62; 56.632478; 16581.460422057
546.64; 55.671593; 16638.131701402
547.66; 54.883613; 16694.00085102
548.68; 54.125812; 16749.098591816
549.70; 53.253007; 16803.307854641
550.71; 52.163853; 16856.408406015
551.73; 50.828296; 16908.149418425
552.75; 49.290078; 16958.324590914
553.77; 47.647299; 17006.82748511
554.79; 46.020779; 17053.674651861
555.80; 44.52227; 17098.996401662
556.82; 43.232374; 17143.005093007
557.84; 42.192764; 17185.955506318
558.86; 41.411468; 17228.110593985
559.88; 40.875681; 17269.72027369
560.89; 40.565185; 17311.013881919
561.91; 40.460912; 17352.201344263
562.93; 40.546449; 17393.475879989
563.95; 40.8038; 17435.012387456
564.97; 41.207056; 17476.959392319
565.98; 41.718164; 17519.426683561
567.00; 42.287674; 17562.473710532
568.02; 42.861056; 17606.104416418
569.04; 43.388864; 17650.2724075
570.06; 43.837448; 17694.897037994
571.07; 44.196722; 17739.887393881
572.09; 44.482324; 17785.168480448
573.11; 44.731192; 17830.702903629
574.13; 44.991338; 17876.502144167
575.15; 45.308081; 17922.623815697
576.16; 45.709829; 17969.154449285
577.18; 46.196674; 18016.180670139
578.20; 46.734633; 18063.754510009
579.22; 47.257414; 18111.860518171
580.24; 47.67624; 18160.392873197
581.25; 47.896602; 18209.14954757
582.27; 47.839058; 18257.847643961
583.29; 47.45972; 18306.159590832
584.31; 46.765396; 18353.764745535
