#Wavenumber (cm^-1); Spectrum (K*cm*km*mol^-1); Integral (K*km*mol^-1)
0.00; 1.4265451; 1.4521613582933
1.02; 1.4811635; 2.9599218379895
2.04; 1.6408674; 4.6302540403108
3.05; 1.8936943; 6.5579530771489
4.07; 2.2213279; 8.8191690016084
5.09; 2.6014535; 11.467336374227
6.11; 3.0108115; 14.532212529435
7.13; 3.4285611; 18.022339831083
8.14; 3.8393681; 21.930650892843
9.16; 4.235524; 26.242231536987
10.18; 4.6174835; 30.94263045577
11.20; 4.9925075; 36.024787635545
12.22; 5.3715909; 41.492835396341
13.23; 5.7654007; 47.361764512285
14.25; 6.180366; 53.65311041617
15.27; 6.6161658; 60.388081732746
16.29; 7.0655447; 67.580501394059
17.31; 7.5166954; 75.232172974673
18.32; 7.9575648; 83.332630538243
19.34; 8.380674; 91.863794990732
20.36; 8.7866997; 100.80827610165
21.38; 9.1853433; 110.15855918322
22.40; 9.5928939; 119.92371120907
23.41; 10.027109; 130.13087519658
24.43; 10.501143; 140.82058549794
25.45; 11.0188; 152.03724867192
26.47; 11.573049; 163.81811316438
27.48; 12.148578; 176.18484121372
28.50; 12.727547; 189.14093497908
29.52; 13.296242; 202.67593525955
30.54; 13.849706; 216.7743380776
31.56; 14.392005; 231.42477823531
32.57; 14.931437; 246.62433699228
33.59; 15.472214; 262.37438353663
34.61; 16.006; 278.66780062246
35.63; 16.507338; 295.47155810634
36.65; 16.936044; 312.71171997738
37.66; 17.247213; 330.26863810318
38.68; 17.406471; 347.9876745514
39.70; 17.405642; 365.70586691648
40.72; 17.273108; 383.28914512528
41.74; 17.07442; 400.67016747831
42.75; 16.901728; 417.87539719167
43.77; 16.854405; 435.03245390504
44.79; 17.016373; 452.35438781397
45.81; 17.436946; 470.10444671215
46.83; 18.12087; 488.55071030452
47.84; 19.030179; 507.92261128324
48.86; 20.0965; 528.37998137759
49.88; 21.239115; 550.00048411659
50.90; 22.382583; 572.78498813169
51.92; 23.468537; 596.67494596033
52.93; 24.458943; 621.57309403515
53.95; 25.331586; 647.35955584897
54.97; 26.071394; 673.89910990664
55.99; 26.662431; 701.04031428306
57.01; 27.084678; 728.61134763285
58.02; 27.317381; 756.4192628307
59.04; 27.347937; 784.25828275726
60.06; 27.182942; 811.92934495059
61.08; 26.85706; 839.26867295327
62.10; 26.435919; 866.17929747915
63.11; 26.011034; 892.65740815635
64.13; 25.687062; 918.80572911484
65.15; 25.563806; 944.82858087082
66.17; 25.71681; 971.00718400111
67.19; 26.180809; 997.65811767339
68.20; 26.939869; 1025.0817418322
69.22; 27.926848; 1053.5100682193
70.24; 29.033059; 1083.064469925
71.26; 30.12697; 1113.7324249837
72.27; 31.078672; 1145.369172016
73.29; 31.785188; 1177.7251220825
74.31; 32.190884; 1210.4940525392
75.33; 32.297874; 1243.3718942333
76.35; 32.163404; 1276.1128514318
77.36; 31.884455; 1308.5698511633
78.38; 31.573407; 1340.7102170193
79.40; 31.331309; 1372.6041379205
80.42; 31.226171; 1404.3910322607
81.44; 31.282123; 1436.2348836159
82.45; 31.481812; 1468.2820096487
83.47; 31.779994; 1500.6326720105
84.49; 32.122702; 1533.3321965034
85.51; 32.464843; 1566.3800052991
86.53; 32.780297; 1599.7489331346
87.54; 33.062072; 1633.4046962045
88.56; 33.314356; 1667.3172733674
89.58; 33.541721; 1701.4612980088
90.60; 33.741745; 1735.8089384126
91.62; 33.905503; 1770.3232771173
92.63; 34.026448; 1804.9607332899
93.65; 34.113826; 1839.6871356621
94.67; 34.203797; 1874.5051252617
95.69; 34.361385; 1909.4835320661
96.71; 34.669288; 1944.7753711482
97.72; 35.204712; 1980.6122490414
98.74; 36.010532; 2017.2694167775
99.76; 37.070416; 2055.0055008712
100.78; 38.297494; 2093.9906973117
101.80; 39.54258; 2134.2433370466
102.81; 40.621986; 2175.5947662985
103.83; 41.358584; 2217.6960205967
104.85; 41.625137; 2260.0686134117
105.87; 41.377685; 2302.1893115094
106.89; 40.669268; 2343.5888717882
107.90; 39.639708; 2383.9403844267
108.92; 38.483925; 2423.1153591384
109.94; 37.407109; 2461.1941814484
110.96; 36.578491; 2498.4295066355
111.98; 36.095464; 2535.1731313652
112.99; 35.966656; 2571.7856356357
114.01; 36.117247; 2608.5514350191
115.03; 36.413911; 2645.6192248735
116.05; 36.701888; 2682.9801630332
117.07; 36.844033; 2720.4857983643
118.08; 36.751812; 2757.8975569277
119.10; 36.400998; 2794.9522020722
120.12; 35.829298; 2831.4248809542
121.14; 35.118158; 2867.1736508525
122.15; 34.365105; 2902.1558452144
123.17; 33.655088; 2936.4152720423
124.19; 33.038928; 2970.0474753696
125.21; 32.524268; 3003.1557767254
126.23; 32.080258; 3035.8120946201
127.24; 31.653023; 3068.033506635
128.26; 31.185915; 3099.7794224094
129.28; 30.637678; 3130.9672569552
130.30; 29.993148; 3161.4989869279
131.32; 29.264171; 3191.2886498448
132.33; 28.482098; 3220.282196496
133.35; 27.685924; 3248.4652727183
134.37; 26.911158; 3275.8596703935
135.39; 26.183468; 3302.5133106132
136.41; 25.518696; 3328.4902418947
137.42; 24.928026; 3353.8658962735
138.44; 24.425058; 3378.7295508327
139.46; 24.031064; 3403.1921372007
140.48; 23.775743; 3427.3948175649
141.50; 23.692817; 3451.5130831494
142.51; 23.811896; 3475.7525656071
143.53; 24.149273; 3500.3354832819
144.55; 24.700473; 3525.4794993177
145.57; 25.436508; 3551.3727666855
146.59; 26.304564; 3578.1496775198
147.60; 27.232848; 3605.8715411305
148.62; 28.138807; 3634.5156324743
149.64; 28.93992; 3663.9752217289
150.66; 29.566211; 3694.0723486397
151.68; 29.973301; 3724.5838757043
152.69; 30.153954; 3755.2793001624
153.71; 30.145248; 3785.9658621044
154.73; 30.028195; 3816.533269213
155.75; 29.917593; 3846.9880880243
156.77; 29.942124; 3877.4678781673
157.78; 30.217776; 3908.2282701472
158.80; 30.820402; 3939.6021096442
159.82; 31.764508; 3971.9370077899
160.84; 32.99441; 4005.5238930185
161.86; 34.390864; 4040.5323084488
162.87; 35.792064; 4076.9670855815
163.89; 37.02407; 4114.6559909485
164.91; 37.933528; 4153.270685895
165.93; 38.415682; 4192.3761929301
166.94; 38.432691; 4231.4990138092
167.96; 38.020241; 4270.2019783153
168.98; 37.282951; 4308.1544136293
170.00; 36.380395; 4345.1880854564
171.02; 35.505718; 4381.3313746616
172.03; 34.858576; 4416.8159010299
173.05; 34.61441; 4452.0518763759
174.07; 34.893524; 4487.571978014
175.09; 35.735504; 4523.9491789206
176.11; 37.086018; 4561.7011447337
177.12; 38.802412; 4601.2003257955
178.14; 40.680798; 4642.6116222486
179.16; 42.501035; 4685.8758416066
180.18; 44.07912; 4730.7464831653
181.20; 45.311845; 4776.871986558
182.21; 46.198824; 4823.9003959361
183.23; 46.832946; 4871.5743145294
184.25; 47.360768; 4919.7855326593
185.27; 47.925565; 4968.5716895865
186.29; 48.613505; 5018.0581396632
187.30; 49.423933; 5068.3695703795
188.32; 50.277121; 5119.5495098138
189.34; 51.059134; 5171.5255050016
190.36; 51.688535; 5224.1422034939
191.38; 52.179282; 5277.2584612218
192.39; 52.672832; 5330.8771314526
193.41; 53.42149; 5385.2579034854
194.43; 54.721829; 5440.9623639045
195.45; 56.815826; 5498.7984228844
196.47; 59.791388; 5559.663476265
197.48; 63.517639; 5624.3216922575
198.50; 67.6418; 5693.1781253405
199.52; 71.655999; 5766.1208399445
200.54; 75.019805; 5842.4877644804
201.56; 77.305182; 5921.1811035711
202.57; 78.321407; 6000.9089163873
203.59; 78.181524; 6080.4943337491
204.61; 77.287989; 6159.1701710849
205.63; 76.238495; 6236.7776692311
206.65; 75.67612; 6313.8126939523
207.66; 76.124034; 6391.3036761473
208.68; 77.849205; 6470.5508078224
209.70; 80.790919; 6552.7924768072
210.72; 84.571456; 6638.8825699652
211.74; 88.583655; 6729.0569086716
212.75; 92.130049; 6822.8413230515
213.77; 94.576383; 6919.1159993988
214.79; 95.481349; 7016.3118928399
215.81; 94.673796; 7112.6857318076
216.82; 92.264844; 7206.60736173
217.84; 88.600105; 7296.7984456183
218.86; 84.17124; 7382.481136025
219.88; 79.51299; 7463.4219287376
220.90; 75.110538; 7539.881215027
221.91; 71.334333; 7612.4964878437
222.93; 68.40878; 7682.1336738667
223.95; 66.411338; 7749.7375501214
224.97; 65.29252; 7816.2025179982
225.99; 64.906051; 7882.2740772356
227.00; 65.041144; 7948.4831554858
228.02; 65.453212; 8015.1117012894
229.04; 65.892886; 8082.1878163415
230.06; 66.134339; 8149.5097192075
231.08; 66.002471; 8216.6973866309
232.09; 65.395785; 8283.2674743144
233.11; 64.299622; 8348.7217151191
234.13; 62.78461; 8412.6337383993
235.15; 60.988105; 8474.7169972092
236.17; 59.081286; 8534.8591970755
237.18; 57.229473; 8593.1163309017
238.20; 55.556114; 8649.6700571903
239.22; 54.120364; 8704.7622526053
240.24; 52.914215; 8758.6266396581
241.26; 51.879078; 8811.4373021572
242.27; 50.935746; 8863.287693366
243.29; 50.017719; 8914.203572627
244.31; 49.097386; 8964.1825929015
245.33; 48.197341; 9013.2454059765
246.35; 47.384104; 9061.4803790631
247.36; 46.746947; 9109.066754185
248.38; 46.368652; 9156.2680405496
249.40; 46.296857; 9203.3962433967
250.42; 46.523961; 9250.755627999
251.44; 46.980813; 9298.5800685203
252.45; 47.545736; 9346.979576168
253.47; 48.066596; 9395.9092970867
254.49; 48.390666; 9445.1689069629
255.51; 48.395316; 9494.4332498168
256.53; 48.012495; 9543.3078977832
257.54; 47.241482; 9591.3976879237
258.56; 46.147232; 9638.3735789016
259.58; 44.84524; 9684.0240978571
260.60; 43.477216; 9728.2820272103
261.61; 42.184084; 9771.2236049078
262.63; 41.083072; 9813.0443996535
263.65; 40.253794; 9854.0210248665
264.67; 39.7349; 9894.4694380398
265.69; 39.529211; 9934.7084695786
266.70; 39.612835; 9975.0326257741
267.72; 39.943438; 10015.693321908
268.74; 40.464867; 10056.884810792
269.76; 41.108499; 10098.73148921
270.78; 41.794652; 10141.276641314
271.79; 42.438368; 10184.477068196
272.81; 42.962226; 10228.210760258
273.83; 43.315078; 10272.303640695
274.85; 43.491383; 10316.575992135
275.87; 43.543275; 10360.901166901
276.88; 43.578174; 10405.261867397
277.90; 43.738915; 10449.786195762
278.92; 44.169623; 10494.748966302
279.94; 44.976501; 10540.53310386
280.96; 46.19574; 10587.558373445
281.97; 47.779368; 10636.195708625
282.99; 49.604324; 10686.690769978
284.01; 51.502228; 10739.11781587
285.03; 53.300323; 10793.375244392
286.05; 54.860401; 10849.220765335
287.06; 56.10376; 10906.331971767
288.08; 57.015654; 10964.37144717
289.10; 57.630281; 11023.036585908
290.12; 58.004015; 11082.082170566
291.14; 58.188037; 11141.315081202
292.15; 58.210516; 11200.570874668
293.17; 58.073923; 11259.687621891
294.19; 57.766709; 11318.491638503
295.21; 57.283152; 11376.803415642
296.23; 56.642411; 11434.462946323
297.24; 55.89857; 11491.365278366
298.26; 55.137054; 11547.49242005
299.28; 54.457724; 11602.928033037
300.30; 53.949429; 11657.846223751
301.32; 53.663517; 11712.473368675
302.33; 53.594127; 11767.029877706
303.35; 53.671274; 11821.664918233
304.37; 53.769478; 11876.399926653
305.39; 53.730901; 11931.095665222
306.41; 53.398384; 11985.452915745
307.42; 52.65122; 12039.049585678
308.44; 51.435306; 12091.408507681
309.46; 49.779983; 12142.082382516
310.48; 47.796453; 12190.737109437
311.49; 45.656864; 12237.213827055
312.51; 43.558161; 12281.554155709
313.53; 41.67927; 12323.981853609
314.55; 40.142654; 12364.845343086
315.57; 38.990694; 12404.53618677
316.58; 38.183409; 12443.405249805
317.60; 37.617851; 12481.698599313
318.62; 37.162829; 12519.528755474
319.64; 36.697897; 12556.885631003
320.66; 36.144426; 12593.679097234
321.67; 35.479652; 12629.795852283
322.69; 34.730845; 12665.150353987
323.71; 33.953868; 12699.713926178
324.73; 33.205747; 12733.515943531
325.75; 32.522432; 12766.622375774
326.76; 31.910102; 12799.10548226
327.78; 31.352354; 12831.020826114
328.80; 30.828821; 12862.403235084
329.82; 30.335907; 12893.283879667
330.84; 29.899478; 12923.720258357
331.85; 29.572647; 12953.823936575
332.87; 29.418155; 12983.770349025
333.89; 29.481477; 13013.781220565
334.91; 29.765107; 13044.080814959
335.93; 30.214732; 13074.838108536
336.94; 30.723971; 13106.113784934
337.96; 31.157612; 13137.830889894
338.98; 31.386435; 13169.780926582
340.00; 31.322248; 13201.665623442
341.02; 30.94151; 13233.162745063
342.03; 30.289732; 13263.996385015
343.05; 29.465422; 13293.990913264
344.07; 28.589143; 13323.093427063
345.09; 27.767944; 13351.35999586
346.11; 27.066445; 13378.91246895
347.12; 26.493061; 13405.881261373
348.14; 26.004486; 13432.352706081
349.16; 25.525595; 13458.336660152
350.18; 24.977373; 13483.762547908
351.20; 24.303774; 13508.502741258
352.21; 23.489658; 13532.414199429
353.23; 22.56549; 13555.384894639
354.25; 21.598832; 13577.371573301
355.27; 20.676333; 13598.419188459
356.28; 19.882001; 13618.658207994
357.30; 19.277605; 13638.281977751
358.32; 18.889629; 13657.510805196
359.34; 18.704926; 13676.55161236
360.36; 18.674928; 13695.561883676
361.37; 18.72661; 13714.624764747
362.39; 18.777373; 13733.739320432
363.41; 18.750801; 13752.826826326
364.43; 18.590391; 13771.751042447
365.45; 18.268941; 13790.348036226
366.46; 17.792028; 13808.459553244
367.48; 17.19511; 13825.963432782
368.50; 16.534969; 13842.79531735
369.52; 15.87747; 13858.957896809
370.54; 15.284466; 13874.516823136
371.55; 14.802926; 13889.585563366
372.57; 14.458779; 13904.303976568
373.59; 14.256572; 13918.816552065
374.61; 14.184407; 13933.255666476
375.63; 14.222057; 13947.733107026
376.64; 14.349418; 13962.340195257
377.66; 14.552616; 13977.1541299
378.68; 14.82619; 13992.246551501
379.70; 15.171296; 14007.690276401
380.72; 15.591267; 14023.561513313
381.73; 16.086624; 14039.937001994
382.75; 16.6515; 14056.887510009
383.77; 17.272569; 14074.47023996
384.79; 17.930404; 14092.722617646
385.81; 18.602206; 14111.658860511
386.82; 19.26448; 14131.269269894
387.84; 19.894547; 14151.521060109
388.86; 20.470585; 14172.359232739
389.88; 20.97081; 14193.706612198
390.90; 21.372933; 14215.463335998
391.91; 21.655047; 14237.507239088
392.93; 21.798426; 14259.697096563
393.95; 21.79186; 14281.880269795
394.97; 21.636227; 14303.905014976
395.99; 21.347656; 14325.636007872
397.00; 20.957814; 14346.970158448
398.02; 20.510666; 14367.84913184
399.04; 20.05621; 14388.265488015
400.06; 19.642729; 14408.260938885
401.07; 19.309769; 14427.917450433
402.09; 19.083948; 14447.344086136
403.11; 18.978966; 14466.663854682
404.13; 18.999814; 14486.004845878
405.15; 19.149747; 14505.498462037
406.16; 19.437415; 14525.28491171
407.18; 19.881184; 14545.523099182
408.20; 20.508266; 14566.399628867
409.22; 21.347826; 14588.130794736
410.24; 22.419311; 14610.95268539
411.25; 23.719186; 14635.097793377
412.27; 25.210449; 14660.76094287
413.29; 26.819053; 14688.061581454
414.31; 28.439768; 14717.01203819
415.33; 29.951277; 14747.501145467
416.34; 31.237334; 14779.299403812
417.36; 32.20863; 14812.086399424
418.38; 32.819334; 14845.49506526
419.40; 33.073584; 14879.162546735
420.42; 33.02002; 14912.775502112
421.43; 32.735994; 14946.099331736
422.45; 32.306148; 14978.985596095
423.47; 31.801567; 15011.358218588
424.49; 31.265293; 15043.184937294
425.51; 30.707693; 15074.444043365
426.52; 30.111972; 15105.096731765
427.54; 29.447037; 15135.072544548
428.56; 28.682978; 15164.270578072
429.58; 27.804207; 15192.574061411
430.60; 26.816601; 15219.872203879
431.61; 25.747287; 15246.081830925
432.63; 24.63812; 15271.162374238
433.65; 23.535569; 15295.120567503
434.67; 22.480373; 15318.00461727
435.69; 21.499895; 15339.890582374
436.70; 20.604896; 15360.865477455
437.72; 19.791113; 15381.011976036
438.74; 19.04474; 15400.398699157
439.76; 18.350128; 15419.078337848
440.78; 17.697594; 15437.093725025
441.79; 17.089268; 15454.489862406
442.81; 16.541309; 15471.328201449
443.83; 16.081567; 15487.698542217
444.85; 15.742843; 15503.724076582
445.87; 15.553171; 15519.556533918
446.88; 15.525624; 15535.360949191
447.90; 15.650731; 15551.292717633
448.92; 15.894301; 15567.472429833
449.94; 16.20213; 15583.965499323
450.95; 16.511093; 15600.773079464
451.97; 16.764006; 15617.838114248
452.99; 16.924219; 15635.066239097
454.01; 16.985662; 15652.356910061
455.03; 16.975303; 15669.637035604
456.04; 16.947233; 15686.888587415
457.06; 16.97013; 15704.163447422
458.08; 17.111737; 15721.582456936
459.10; 17.424603; 15739.319950886
460.12; 17.936492; 15757.578526118
461.13; 18.64702; 15776.560388182
462.15; 19.530054; 15796.441140864
463.17; 20.539971; 15817.349944585
464.19; 21.619497; 15839.357659556
465.21; 22.707502; 15862.472916479
466.22; 23.746159; 15886.6454813
467.24; 24.687739; 15911.776534741
468.26; 25.501328; 15937.735785763
469.28; 26.17898; 15964.384857512
470.30; 26.739765; 15991.604784635
471.31; 27.229432; 16019.323171722
472.33; 27.713847; 16047.534672531
473.35; 28.265981; 16076.308221405
474.37; 28.948623; 16105.776670639
475.39; 29.797234; 16136.108969285
476.40; 30.808297; 16167.470485949
477.42; 31.937583; 16199.98156774
478.44; 33.109929; 16233.686046993
479.46; 34.238294; 16268.539152704
480.48; 35.246493; 16304.418561125
481.49; 36.088329; 16341.154922519
482.51; 36.75675; 16378.571708234
483.53; 37.279903; 16416.52104035
484.55; 37.70547; 16454.90358137
485.57; 38.078837; 16493.666194019
486.58; 38.422826; 16532.778973088
487.60; 38.726199; 16572.200572495
488.62; 38.944956; 16611.844857077
489.64; 39.015881; 16651.561340066
490.66; 38.877439; 16691.136895224
491.67; 38.490676; 16730.318742077
492.69; 37.852995; 16768.851457258
493.71; 37.00048; 16806.516349042
494.73; 35.998614; 16843.161384808
495.74; 34.925246; 16878.713778166
496.76; 33.851975; 16913.173627616
497.78; 32.830034; 16946.593186019
498.80; 31.884454; 16979.050184676
499.82; 31.016819; 17010.623968041
500.83; 30.213795; 17041.380307599
501.85; 29.45693; 17071.366190897
502.87; 28.729607; 17100.611691436
503.89; 28.019103; 17129.133929037
504.91; 27.314383; 17156.938791863
505.92; 26.602421; 17184.018908987
506.94; 25.866413; 17210.349800864
507.96; 25.088139; 17235.888443509
508.98; 24.254503; 17260.578481303
510.00; 23.365861; 17284.363919871
511.01; 22.442431; 17307.209345993
512.03; 21.52536; 17329.121233433
513.05; 20.670879; 17350.16329647
514.07; 19.938632; 17370.459963373
515.09; 19.37762; 17390.185544509
516.10; 19.014268; 17409.541249155
517.12; 18.846429; 17428.72610035
518.14; 18.845035; 17447.909532601
519.16; 18.962402; 17467.212440008
520.18; 19.143972; 17486.700177903
521.19; 19.339418; 17506.386870694
522.21; 19.509769; 17526.246973644
523.23; 19.629156; 17546.228607412
524.25; 19.68205; 17566.264085213
525.27; 19.658577; 17586.275667826
526.28; 19.550896; 17606.177636374
527.30; 19.352746; 17625.87789683
528.32; 19.062434; 17645.282632437
529.34; 18.68773; 17664.305934673
530.36; 18.249973; 17682.883619228
531.37; 17.784812; 17700.987790692
532.39; 17.338199; 17718.637328972
533.41; 16.958133; 17735.899976201
534.43; 16.684403; 17752.883978053
535.45; 16.539477; 17769.720452111
536.46; 16.523476; 17786.540637669
537.48; 16.614868; 17803.453855829
538.50; 16.776703; 17820.531815211
539.52; 16.966486; 17837.802966111
540.54; 17.146793; 17855.257661743
541.55; 17.293739; 17872.861941961
542.57; 17.401303; 17890.575717132
543.59; 17.480861; 17908.370479703
544.61; 17.556611; 17926.242352392
545.62; 17.658375; 17944.217815994
546.64; 17.813528; 17962.35121909
547.66; 18.039527; 17980.714679334
548.68; 18.338117; 17999.382091153
549.70; 18.692066; 18018.409807791
550.71; 19.065244; 18037.817403849
551.73; 19.406903; 18057.572793361
552.75; 19.660715; 18077.586552747
553.77; 19.778229; 18097.719936604
554.79; 19.734819; 18117.809130849
555.80; 19.544472; 18137.704559474
556.82; 19.268588; 18157.319150592
557.84; 19.014242; 18176.674828295
558.86; 18.919481; 18195.934043042
559.88; 19.127011; 18215.404515067
560.89; 19.751871; 18235.511066999
561.91; 20.851864; 18256.737364685
562.93; 22.410162; 18279.549942415
563.95; 24.336742; 18304.323695471
564.97; 26.48986; 18331.289229678
565.98; 28.712155; 18360.516964488
567.00; 30.870709; 18391.94201408
568.02; 32.888513; 18425.421101495
569.04; 34.757319; 18460.802552128
570.06; 36.528026; 18497.986506832
571.07; 38.282459; 18536.956398189
572.09; 40.096626; 18577.773033155
573.11; 42.008115; 18620.53548103
574.13; 43.998075; 18665.323622523
575.15; 45.99242; 18712.141921726
576.16; 47.879802; 18760.881493993
577.18; 49.538499; 18811.309548781
578.20; 50.862681; 18863.085563125
579.22; 51.780818; 18915.796200917
580.24; 52.263931; 18968.99862764
581.25; 52.326201; 19022.26444271
582.27; 52.022848; 19075.221457207
583.29; 51.44906; 19127.594380663
584.31; 50.739876; 19179.24538511
585.33; 50.066725; 19230.211150831
