#Wavenumber (cm^-1); Spectrum (K*cm*km*mol^-1); Integral (K*km*mol^-1)
0.00; 8.7883404; 8.9461513135473
1.02; 9.2522179; 18.364509845936
2.04; 10.619547; 29.174750791997
3.05; 12.817518; 42.222431002635
4.07; 15.726645; 58.231476676146
5.09; 19.187957; 77.763988632813
6.11; 23.018751; 101.19608421184
7.13; 27.037074; 128.71865890072
8.14; 31.090704; 160.36765349396
9.16; 35.082882; 196.08051313912
10.18; 38.986324; 235.76690904966
11.20; 42.839975; 279.37615499597
12.22; 46.728632; 326.94388547523
13.23; 50.751754; 378.60698052639
14.25; 54.991785; 434.58624494442
15.27; 59.492388; 495.14692845295
16.29; 64.252888; 560.55359617718
17.31; 69.238689; 631.0355935169
18.32; 74.401088; 706.77269037028
19.34; 79.69668; 787.90047105288
20.36; 85.097573; 874.52612831643
21.38; 90.588652; 966.7414669365
22.40; 96.154687; 1064.6227887841
23.41; 101.76536; 1168.2155365653
24.43; 107.36774; 1277.5112671772
25.45; 112.8926; 1392.4310655572
26.47; 118.27461; 1512.8295187429
27.48; 123.47946; 1638.5262786242
28.50; 128.52644; 1769.3606442064
29.52; 133.49544; 1905.2532458023
30.54; 138.5123; 2046.2527873535
31.56; 143.71456; 2192.5480088784
32.57; 149.20814; 2344.4354615116
33.59; 155.02964; 2502.2489458183
34.61; 161.12879; 2666.2710991418
35.63; 167.37946; 2836.6561688701
36.65; 173.61824; 3013.3920498763
37.66; 179.70017; 3196.3190694615
38.68; 185.55493; 3385.2059795153
39.70; 191.22576; 3579.8655501277
40.72; 196.8779; 3780.2787540084
41.74; 202.77204; 3986.6919367938
42.75; 209.20829; 4199.6569526922
43.77; 216.45456; 4419.9983514722
44.79; 224.67751; 4648.710357675
45.81; 233.89424; 4886.8045969827
46.83; 243.9574; 5135.1427005638
47.84; 254.57881; 5394.2929393203
48.86; 265.38736; 5664.4458212034
49.88; 276.00902; 5945.4110912418
50.90; 286.151; 6236.7004609567
51.92; 295.67067; 6537.6804475064
52.93; 304.61188; 6847.7621927809
53.95; 313.19786; 7166.5841029327
54.97; 321.7794; 7494.1416470021
55.99; 330.74713; 7830.8279562729
57.01; 340.42693; 8177.3678776875
58.02; 350.98279; 8534.6532144648
59.04; 362.35242; 8903.512341815
60.06; 374.23427; 9284.4666840832
61.08; 386.13361; 9677.5340344443
62.10; 397.46021; 10082.1313772
63.11; 407.65693; 10497.108540597
64.13; 416.32891; 10920.913409546
65.15; 423.34185; 11351.857147224
66.17; 428.86409; 11788.422283075
67.19; 433.34069; 12229.544403846
68.20; 437.404; 12674.802801851
69.22; 441.74062; 13124.47568747
70.24; 446.94502; 13579.446427409
71.26; 453.39333; 14040.981270493
72.27; 461.16594; 14510.428297059
73.29; 470.03677; 14988.90544193
74.31; 479.53229; 15477.048624462
75.33; 489.04824; 15974.878628896
76.35; 497.99864; 16481.81975048
77.36; 505.96393; 16996.869196659
78.38; 512.80299; 17518.880516009
79.40; 518.69994; 18046.894670068
80.42; 524.12995; 18580.436342905
81.44; 529.74746; 19119.696395235
82.45; 536.2206; 19665.545825803
83.47; 544.05318; 20219.368483417
84.49; 553.44287; 20782.749441357
85.51; 564.21845; 21357.099476012
86.53; 575.87858; 21943.319023318
87.54; 587.72464; 22541.597344935
88.56; 599.04911; 23151.403485627
89.58; 609.32015; 23771.66510253
90.60; 618.3009; 24401.068742809
91.62; 626.06239; 25038.373239135
92.63; 632.88626; 25682.624142447
93.65; 639.09611; 26333.19640639
94.67; 644.88687; 26989.663415858
95.69; 650.22808; 27651.567539757
96.71; 654.89251; 28318.219854822
97.72; 658.61357; 28988.660053379
98.74; 661.31913; 29661.854394469
99.76; 663.34853; 30337.114571837
100.78; 665.5512; 31014.616969713
101.80; 669.19711; 31695.830745629
102.81; 675.69308; 32383.657142235
103.83; 686.17339; 33082.152046979
104.85; 701.09006; 33795.831473888
105.87; 719.9444; 34528.703806287
106.89; 741.26736; 35283.281992782
107.90; 762.88034; 36059.861262617
108.92; 782.37658; 36856.286856395
109.94; 797.68768; 37668.298490015
110.96; 807.5689; 38490.368782603
111.98; 811.86177; 39316.809027271
112.99; 811.46574; 40142.846132189
114.01; 808.04518; 40965.401252229
115.03; 803.57978; 41783.41079686
116.05; 799.90729; 42597.681903564
117.07; 798.39333; 43410.411856947
118.08; 799.80339; 44224.57719105
119.10; 804.37068; 45043.391838226
120.12; 811.98334; 45869.955838696
121.14; 822.38143; 46707.104645435
122.15; 835.26881; 47557.372251818
123.17; 850.29738; 48422.938288087
124.19; 866.94856; 49305.454507574
125.21; 884.38984; 50205.725202597
126.23; 901.40109; 51123.312614705
127.24; 916.4407; 52056.209703693
128.26; 927.86615; 53000.73740765
129.28; 934.26016; 53951.773931152
130.30; 934.76805; 54903.327467355
131.32; 929.34098; 55849.35648338
132.33; 918.80639; 56784.661742753
133.35; 904.74043; 57705.648459215
134.37; 889.17629; 58610.791548594
135.39; 874.22706; 59500.716968584
136.41; 861.71846; 60377.909178888
137.42; 852.91367; 61246.13849
138.44; 848.37825; 62109.750943224
139.46; 847.99208; 62972.970290976
140.48; 851.08034; 63839.333349783
141.50; 856.61601; 64711.33148114
142.51; 863.44218; 65590.278363473
143.53; 870.47017; 66476.379434247
144.55; 876.82277; 67368.947180899
145.57; 881.90651; 68266.689950455
146.59; 885.41026; 69167.999387987
147.60; 887.24093; 70071.17237056
148.62; 887.41907; 70974.526693899
149.64; 885.9673; 71876.403173488
150.66; 882.8278; 72775.083776384
151.68; 877.83862; 73668.685616216
152.69; 870.78077; 74555.102862221
153.71; 861.48308; 75432.055466806
154.73; 849.94834; 76297.26619708
155.75; 836.45072; 77148.736939078
156.77; 821.56045; 77985.050020889
157.78; 806.0746; 78805.599180462
158.80; 790.86823; 79610.668914147
159.82; 776.71178; 80401.327984842
160.84; 764.11753; 81179.16666201
161.86; 753.27032; 81945.963342636
162.87; 744.06706; 82703.391497005
163.89; 736.24834; 83452.860539298
164.91; 729.56796; 84195.529240768
165.93; 723.92963; 84932.458363967
166.94; 719.43177; 85664.80886266
167.96; 716.29705; 86393.968345772
168.98; 714.71058; 87121.512873997
170.00; 714.63079; 87848.976184904
171.02; 715.65346; 88577.48052598
172.03; 716.9959; 89307.351409708
173.05; 717.6283; 90037.866055665
174.07; 716.52691; 90767.25953478
175.09; 712.97754; 91493.03990589
176.11; 706.83417; 92212.566587536
177.12; 698.64396; 92923.755994448
178.14; 689.58559; 93625.724363089
179.16; 681.22097; 94319.177914485
180.18; 675.11618; 95006.417051181
181.20; 672.42811; 95690.919853243
182.21; 673.56948; 96376.584516704
183.23; 678.04946; 97066.809605513
184.25; 684.54537; 97763.647256445
185.27; 691.20104; 98467.260084611
186.29; 696.08509; 99175.844666333
187.30; 697.69386; 99886.066907567
188.32; 695.36233; 100593.91574909
189.34; 689.46234; 101295.75865589
190.36; 681.31883; 101989.3118253
191.38; 672.85128; 102674.24538967
192.39; 666.02871; 103352.23387648
193.41; 662.2882; 104026.41468929
194.43; 662.08688; 104700.39055841
195.45; 664.72647; 105377.05341664
196.47; 668.5127; 106057.57050275
197.48; 671.21114; 106740.83447541
198.50; 670.66861; 107423.54617853
199.52; 665.41656; 108100.91152038
200.54; 655.07769; 108767.75234574
201.56; 640.46113; 109419.71413851
202.57; 623.33098; 110054.23818121
203.59; 605.93555; 110671.05442272
204.61; 590.4527; 111272.10978997
205.63; 578.51976; 111861.01793836
206.65; 570.97112; 112442.24190235
207.66; 567.82436; 113020.26259575
208.68; 568.4687; 113598.93919879
209.70; 571.95146; 114181.16109937
210.72; 577.24717; 114768.77381132
211.74; 583.42995; 115362.68032319
212.75; 589.73096; 115963.00099752
213.77; 595.52082; 116569.2154944
214.79; 600.28437; 117180.27907846
215.81; 603.64359; 117794.76220606
216.82; 605.44055; 118411.07455793
217.84; 605.84115; 119027.79470903
218.86; 605.38842; 119644.05399759
219.88; 604.93896; 120259.85575761
220.90; 605.45936; 120876.18725809
221.91; 607.7219; 121494.82192555
222.93; 611.99437; 122117.80578216
223.95; 617.83996; 122746.74019825
224.97; 624.11871; 123382.06611598
225.99; 629.21801; 124022.58289367
227.00; 631.45986; 124665.38177805
228.02; 629.56783; 125306.25466215
229.04; 623.05088; 125940.49356896
230.06; 612.38519; 126563.87527037
231.08; 598.93893; 127173.56925276
232.09; 584.66444; 127768.7324188
233.11; 571.65078; 128350.64824056
234.13; 561.66313; 128922.39706782
235.15; 555.78818; 129488.16545175
236.17; 554.26256; 130052.38081812
237.18; 556.50342; 130618.87728182
238.20; 561.30691; 131190.26349205
239.22; 567.14653; 131767.59418974
240.24; 572.4946; 132350.36898877
241.26; 576.1017; 132936.81566061
242.27; 577.19166; 133524.37186853
243.29; 575.55293; 134110.2599101
244.31; 571.52606; 134692.04877928
245.33; 565.90053; 135268.11109569
246.35; 559.74337; 135837.90569294
247.36; 554.19121; 136402.04842945
248.38; 550.24301; 136962.17207148
249.40; 548.5927; 137520.61577001
250.42; 549.53339; 138080.01704531
251.44; 552.94845; 138642.89470206
252.45; 558.3822; 139211.30368304
253.47; 565.16179; 139786.61399243
254.49; 572.5305; 140369.42533656
255.51; 579.75613; 140959.59206019
256.53; 586.19494; 141556.31321192
257.54; 591.31513; 142158.24649761
258.56; 594.70237; 142763.62784475
259.58; 596.0749; 143370.40637011
260.60; 595.32433; 143976.42084474
261.61; 592.57516; 144579.63678666
262.63; 588.23367; 145178.43327801
263.65; 582.98658; 145771.88846036
264.67; 577.72048; 146359.98298263
265.69; 573.36153; 146943.640276
266.70; 570.67125; 147524.5589805
267.72; 570.0619; 148104.85739121
268.74; 571.49964; 148686.61936055
269.76; 574.54078; 149271.47708527
270.78; 578.50137; 149860.3665206
271.79; 582.7102; 150453.54035887
272.81; 586.75979; 151050.83650835
273.83; 590.66442; 151652.10740201
274.85; 594.86277; 152257.65202989
275.87; 600.05645; 152868.48360423
276.88; 606.93451; 153486.31674121
277.90; 615.87619; 154113.25212584
278.92; 626.7345; 154751.24080016
279.94; 638.77656; 155401.4877767
280.96; 650.80479; 156063.97897083
281.97; 661.42335; 156737.27939702
282.99; 669.36934; 157418.66850428
284.01; 673.81181; 158104.57984586
285.03; 674.53758; 158791.22999584
286.05; 671.9837; 159475.28040384
287.06; 667.12435; 160154.3842081
288.08; 661.2607; 160827.5190703
289.10; 655.78108; 161495.07591129
290.12; 651.95485; 162158.73781822
291.14; 650.80045; 162821.22459254
292.15; 653.03733; 163485.98841392
293.17; 659.10444; 164156.92829465
294.19; 669.21156; 164838.15678769
295.21; 683.38763; 165533.81590957
296.23; 701.49983; 166247.91247023
297.24; 723.23357; 166984.13304048
298.26; 748.04164; 167745.60714811
299.28; 775.08555; 168534.6107932
300.30; 803.2007; 169352.23445117
301.32; 830.91653; 170198.07162213
302.33; 856.55327; 171070.00588492
303.35; 878.39805; 171964.17719172
304.37; 894.93845; 172875.18591491
305.39; 905.10752; 173796.54631286
306.41; 908.47863; 174721.33836006
307.42; 905.34941; 175642.94499431
308.44; 896.6751; 176555.72155191
309.46; 883.85077; 177455.44349728
310.48; 868.38811; 178339.42511901
311.49; 851.57102; 179206.28767464
312.51; 834.18991; 180055.4570022
313.53; 816.43753; 180886.55518051
314.55; 798.00283; 181698.88762498
315.57; 778.33502; 182491.19908886
316.58; 756.99194; 183261.78421431
317.60; 733.95371; 184008.91741752
318.62; 709.79065; 184731.45366649
319.64; 685.62109; 185429.38634582
320.66; 662.86635; 186104.15568998
321.67; 642.88087; 186758.58067672
322.69; 626.58021; 187396.41229226
323.71; 614.19211; 188021.63335545
324.73; 605.214; 188637.71509397
325.75; 598.59008; 189247.05396418
326.76; 593.04687; 189850.75009093
327.78; 587.47489; 190448.77417734
328.80; 581.23233; 191040.44360307
329.82; 574.27824; 191625.03407373
330.84; 567.10348; 192202.32094898
331.85; 560.49575; 192772.88143284
332.87; 555.22644; 193338.07799131
333.89; 551.76497; 193899.75091615
334.91; 550.10759; 194459.73670541
335.93; 549.76291; 195019.37162504
336.94; 549.8819; 195579.12766676
337.96; 549.47734; 196138.47188369
338.98; 547.65791; 196695.96400731
340.00; 543.80974; 197249.5388541
341.02; 537.68603; 197796.88003198
342.03; 529.40105; 198335.78745551
343.05; 519.35359; 198864.46700228
344.07; 508.11958; 199381.71081279
345.09; 496.35001; 199886.97370188
346.11; 484.69492; 200380.37221422
347.12; 473.75488; 200862.63423875
348.14; 464.04695; 201335.01400985
349.16; 455.96879; 201799.17056544
350.18; 449.7518; 202256.99849031
351.20; 445.40818; 202710.40480143
352.21; 442.6906; 203161.0447326
353.23; 441.08933; 203610.0546335
354.25; 439.88725; 204057.84087286
355.27; 438.27764; 204503.98859981
356.28; 435.52802; 204947.33732847
357.30; 431.15354; 205386.23302774
358.32; 425.0524; 205818.91802927
359.34; 417.55918; 206243.97525318
360.36; 409.39075; 206660.71736566
361.37; 401.48852; 207069.41535698
362.39; 394.79218; 207471.29675658
363.41; 390.00311; 207868.30308819
364.43; 387.40298; 208262.6626009
365.45; 386.77978; 208656.3877288
366.46; 387.48442; 209050.83015006
367.48; 388.60347; 209446.41171624
368.50; 389.20035; 209842.6008734
369.52; 388.55822; 210238.13637628
370.54; 386.35974; 210631.43392022
371.55; 382.75935; 211021.06641729
372.57; 378.33672; 211406.19687491
373.59; 373.95278; 211786.86467009
374.61; 370.55266; 212164.07129281
375.63; 368.96742; 212539.664202
376.64; 369.75772; 212916.06160316
377.66; 373.12525; 213295.88701077
378.68; 378.89818; 213681.5890063
379.70; 386.58314; 214075.11396467
380.72; 395.46999; 214477.68535205
381.73; 404.77391; 214889.72772631
382.75; 413.79879; 215310.95704119
383.77; 422.10085; 215740.63749527
384.79; 429.62304; 216177.97520901
385.81; 436.76339; 216622.58149765
386.82; 444.34155; 217074.90201667
387.84; 453.44289; 217536.48730767
388.86; 465.15056; 218009.99050516
389.88; 480.21362; 218498.82725313
390.90; 498.73299; 219006.51591883
391.91; 519.96013; 219535.81289554
392.93; 542.28754; 220087.83820835
393.95; 563.46473; 220661.42098779
394.97; 581.01039; 221252.86449318
395.99; 592.72995; 221856.23800536
397.00; 597.20916; 222464.17116049
398.02; 594.15283; 223068.99310077
399.04; 584.47616; 223663.96461076
400.06; 570.1232; 224244.32542503
401.07; 553.66174; 224807.92918085
402.09; 537.76357; 225355.34928924
403.11; 524.70498; 225889.47631684
404.13; 516.0084; 226414.75059723
405.15; 512.2986; 226936.24847034
406.16; 513.38204; 227458.84922932
407.18; 518.49604; 227986.6558239
408.20; 526.63451; 228522.74702841
409.22; 536.84657; 229069.23367132
410.24; 548.42648; 229627.50816668
411.25; 560.95628; 230198.53745766
412.27; 574.21389; 230783.06241963
413.29; 588.0028; 231381.62389901
414.31; 601.98277; 231994.41638035
415.33; 615.57756; 232621.04777181
416.34; 628.00731; 233260.33210995
417.36; 638.44722; 233910.24382507
418.38; 646.26573; 234568.11445204
419.40; 651.25937; 235231.06839176
420.42; 653.79178; 235896.60021289
421.43; 654.76723; 236563.12500049
422.45; 655.41982; 237230.31409739
423.47; 656.96383; 237899.0749277
424.49; 660.20699; 238571.1371582
425.51; 665.25513; 239248.33816938
426.52; 671.42048; 239931.81524404
427.54; 677.38893; 240621.36794524
428.56; 681.61933; 241315.22701056
429.58; 682.86986; 242010.35906481
430.60; 680.6996; 242703.28188725
431.61; 675.79662; 243391.21368521
432.63; 670.03711; 244073.28254834
433.65; 666.2636; 244751.5101387
434.67; 667.85332; 245431.35599654
435.69; 678.1992; 246121.73352106
436.70; 700.22846; 246834.53587693
437.72; 736.04068; 247583.79352319
438.74; 786.68213; 248384.60198889
439.76; 852.0176; 249251.91914121
440.78; 930.64254; 250199.27308343
441.79; 1019.8056; 251237.39119073
442.81; 1115.3691; 252372.78877608
443.83; 1211.8903; 253606.44081545
444.85; 1302.9274; 254932.76467409
445.87; 1381.6327; 256339.2071758
446.88; 1441.6081; 257806.70200638
447.90; 1477.8817; 259311.121786
448.92; 1487.7814; 260825.61901974
449.94; 1471.4586; 262323.50036571
450.95; 1431.8848; 263781.09726554
451.97; 1374.2809; 265180.0559024
452.99; 1305.1063; 266508.59781911
454.01; 1230.8664; 267761.5666917
455.03; 1157.05; 268939.39368707
456.04; 1087.4589; 270046.3799214
457.06; 1024.0554; 271088.82410733
458.08; 967.28713; 272073.48066282
459.10; 916.70292; 273006.64467792
460.12; 871.60592; 273893.90188924
461.13; 831.51708; 274740.35040025
462.15; 796.32509; 275550.97498025
463.17; 766.13488; 276330.86722329
464.19; 740.94173; 277085.11393123
465.21; 720.31019; 277818.35861723
466.22; 703.21442; 278534.20055549
467.24; 688.11647; 279234.67343314
468.26; 673.25784; 279920.02086568
469.28; 657.06042; 280588.88001691
470.30; 638.50112; 281238.84660595
471.31; 617.34676; 281867.27897013
472.33; 594.19418; 282472.14300491
473.35; 570.3283; 283052.71260862
474.37; 547.46071; 283610.00398292
475.39; 527.42997; 284146.90493775
476.40; 511.93443; 284668.03209226
477.42; 502.34002; 285179.39255535
478.44; 499.57767; 285687.94106502
479.46; 504.12405; 286201.11759406
480.48; 516.04993; 286726.43415857
481.49; 535.11446; 287271.15758262
482.51; 560.87677; 287842.10593001
483.53; 592.78772; 288445.53825243
484.55; 630.21965; 289087.07465675
485.57; 672.40174; 289771.55061197
486.58; 718.25774; 290502.70599585
487.60; 766.18724; 291282.65154747
488.62; 813.87708; 292111.14329329
489.64; 858.2523; 292984.80709662
490.66; 895.65983; 293896.55015877
491.67; 922.31698; 294835.42904718
492.69; 934.96649; 295787.18459325
493.71; 931.59097; 296735.50400362
494.73; 911.98687; 297663.86728267
495.74; 878.00893; 298557.64248246
496.76; 833.37327; 299405.98051263
497.78; 783.03036; 300203.07162651
498.80; 732.2472; 300948.46767487
499.82; 685.62776; 301646.40715238
500.83; 646.31939; 302304.33240332
501.85; 615.5955; 302930.98205843
502.87; 592.89148; 303534.51999815
503.89; 576.24086; 304121.10833272
504.91; 562.956; 304694.17324401
505.92; 550.3514; 305254.40721862
506.94; 536.32747; 305800.36543491
507.96; 519.701; 306329.39862419
508.98; 500.25824; 306838.63992677
510.00; 478.58338; 307325.8171591
511.01; 455.75938; 307789.76053935
512.03; 433.04313; 308230.57975929
513.05; 411.59262; 308649.56328427
514.07; 392.28668; 309048.89420052
515.09; 375.64482; 309431.28441539
516.10; 361.83327; 309799.61507121
517.12; 350.73508; 310156.6482438
518.14; 342.05978; 310504.85034433
519.16; 335.46785; 310846.34214052
520.18; 330.68267; 311182.96282874
521.19; 327.56276; 311516.40758663
522.21; 326.11227; 311848.3758099
523.23; 326.42267; 312180.66000119
524.25; 328.56023; 312515.12013674
525.27; 332.43543; 312853.52505664
526.28; 337.70214; 313197.29126295
527.30; 343.73016; 313547.19373077
528.32; 349.67288; 313903.14563581
529.34; 354.62033; 314264.13382581
530.36; 357.79698; 314628.35571111
531.37; 358.74642; 314993.54408914
532.39; 357.44644; 315357.4091443
533.41; 354.31895; 315718.09054686
534.43; 350.13064; 316074.50843359
535.45; 345.81184; 316426.52996726
536.46; 342.24226; 316774.91781556
537.48; 340.05827; 317121.0824616
538.50; 339.5271; 317466.70639571
539.52; 340.51361; 317813.33456024
540.54; 342.54271; 318162.0282592
541.55; 344.93895; 318513.16122908
542.57; 347.00992; 318866.40235572
543.59; 348.2313; 319220.88679087
544.61; 348.39092; 319575.53370894
545.62; 347.65628; 319929.43280244
546.64; 346.5454; 320282.20106294
547.66; 345.80267; 320634.2132591
548.68; 346.20663; 320986.63666585
549.70; 348.35726; 321341.24932707
550.71; 352.50117; 321700.08030392
551.73; 358.44657; 322064.96344311
552.75; 365.59783; 322437.12626083
553.77; 373.10544; 322816.93149486
554.79; 380.09356; 323203.85033737
555.80; 385.90469; 323596.68466397
556.82; 390.29695; 323993.99011753
557.84; 393.54602; 324394.60298627
558.86; 396.43329; 324798.15496386
559.88; 400.13294; 325205.47302732
560.89; 406.03325; 325618.79735678
561.91; 415.53367; 326041.79270661
562.93; 429.85196; 326479.36344943
563.95; 449.86126; 326937.30280407
564.97; 475.96567; 327421.81532178
565.98; 508.01993; 327938.95769201
567.00; 545.30531; 328494.0549669
568.02; 586.58058; 329091.16868297
569.04; 630.22564; 329732.71118884
570.06; 674.47818; 330419.30087338
571.07; 717.73226; 331149.92134765
572.09; 758.83279; 331922.38038071
573.11; 797.27805; 332733.97503162
574.13; 833.2496; 333582.18717274
575.15; 867.43031; 334465.19379461
576.16; 900.63946; 335382.0059038
577.18; 933.38638; 336332.15295769
578.20; 965.49223; 337314.98238268
579.22; 995.93149; 338328.79766682
580.24; 1022.99; 339370.15737041
581.25; 1044.7399; 340433.65748204
582.27; 1059.7216; 341512.40837838
583.29; 1067.642; 342599.22190241
584.31; 1069.8696; 343688.30300594
585.33; 1069.5573; 344777.06616135
