#Wavenumber (cm^-1); Spectrum (K*cm*km*mol^-1); Integral (K*km*mol^-1)
0.00; 0.32004294; 0.32578989953274
1.02; 0.33632594; 0.66815518930816
2.04; 0.38453527; 1.059595500752
3.05; 0.46252069; 1.5304216029831
4.07; 0.56609846; 2.1066854073505
5.09; 0.68866516; 2.8077168277357
6.11; 0.82141849; 3.6438854016816
7.13; 0.9544477; 4.6154719755751
8.14; 1.078579; 5.7134188871163
9.16; 1.1874752; 6.9222174463828
10.18; 1.2792695; 8.2244586047283
11.20; 1.3570733; 9.6059006726698
12.22; 1.4280371; 11.059580831487
13.23; 1.5011432; 12.587679845902
14.25; 1.5843834; 14.200513816427
15.27; 1.6822334; 15.912954841684
16.29; 1.7942706; 17.739444911794
17.31; 1.915409; 19.689248624086
18.32; 2.0376705; 21.763509306571
19.34; 2.1528848; 23.95505313716
20.36; 2.2553936; 26.250946497787
21.38; 2.3438523; 28.636886980979
22.40; 2.4215519; 31.101922342779
23.41; 2.495212; 33.641940467586
24.43; 2.5727185; 36.260856859758
25.45; 2.66062; 38.969253231812
26.47; 2.7622307; 41.78108489518
27.48; 2.8769239; 44.709669234337
28.50; 3.0007443; 47.764297416801
29.52; 3.1279937; 50.948460045004
30.54; 3.2531297; 54.26000573664
31.56; 3.3722706; 57.692831723472
32.57; 3.4838242; 61.239214386927
33.59; 3.5881548; 64.891801152024
34.61; 3.6866115; 68.644612531579
35.63; 3.7804874; 72.492985526758
36.65; 3.8704772; 76.432964293927
37.66; 3.9569318; 80.460950148169
38.68; 4.0407993; 84.574309432175
39.70; 4.1247537; 88.773130746113
40.72; 4.2138274; 93.06262524638
41.74; 4.314973; 97.455081533926
42.75; 4.4353824; 101.9701094205
43.77; 4.5799328; 106.6322834162
44.79; 4.748605; 111.46615841832
45.81; 4.934921; 116.48969500771
46.83; 5.1262502; 121.70799645386
47.84; 5.3062678; 127.10954814572
48.86; 5.4590911; 132.66666733085
49.88; 5.5739396; 138.3406973501
50.90; 5.6488352; 144.09096786176
51.92; 5.6920243; 149.8852029525
52.93; 5.7204589; 155.70838330444
53.95; 5.7556048; 161.56734058491
54.97; 5.8177328; 167.48954152758
55.99; 5.9203881; 173.51624115302
57.01; 6.0667029; 179.69188288495
58.02; 6.2486427; 186.05273148561
59.04; 6.4493397; 192.61788095637
60.06; 6.6477031; 199.38495580976
61.08; 6.8238393; 206.33132977818
62.10; 6.9636703; 213.42004560551
63.11; 7.0615261; 220.60837442527
64.13; 7.1202349; 227.85646629777
65.15; 7.1490424; 235.13388294979
66.17; 7.1602878; 242.42274695148
67.19; 7.1659644; 249.71738946994
68.20; 7.1750952; 257.02132675256
69.22; 7.1924062; 264.34288586235
70.24; 7.2182911; 271.69079475125
71.26; 7.2497258; 279.07070273969
72.27; 7.2816822; 286.48314096258
73.29; 7.3086804; 293.92306220823
74.31; 7.3262652; 301.38088405518
75.33; 7.3322884; 308.84483726465
76.35; 7.3278514; 316.3042737672
77.36; 7.3176642; 323.75334017184
78.38; 7.3095207; 331.19411685704
79.40; 7.3126929; 338.638122623
80.42; 7.335353; 346.1051954655
81.44; 7.3815608; 353.61930578609
82.45; 7.4487191; 361.20178045127
83.47; 7.5265145; 368.86344742734
84.49; 7.5980694; 376.59795418898
85.51; 7.6433943; 384.37859971724
86.53; 7.6444118; 392.16028106875
87.54; 7.5901545; 399.88673080625
88.56; 7.4804883; 407.50154514364
89.58; 7.3270453; 414.96016106111
90.60; 7.1508837; 422.23945209587
91.62; 6.9774694; 429.34221482893
92.63; 6.8304862; 436.29535504415
93.65; 6.7264015; 443.14254151662
94.67; 6.6714489; 449.93378863534
95.69; 6.661837; 456.71525124224
96.71; 6.6868505; 463.5221765264
97.72; 6.7335111; 470.37660024312
98.74; 6.7909763; 477.28952110934
99.76; 6.8530641; 484.26564463757
100.78; 6.9181041; 491.30797605785
101.80; 6.9864272; 498.41985750819
102.81; 7.0567717; 505.6033465391
103.83; 7.1233388; 512.85459808907
104.85; 7.1749974; 520.15843583238
105.87; 7.1972881; 527.48496451823
106.89; 7.1767531; 534.79058948512
107.90; 7.1061235; 542.02431658055
108.92; 6.9884284; 549.13823511426
109.94; 6.8383303; 556.09936029434
110.96; 6.6798698; 562.89917945789
111.98; 6.5410124; 569.55764783211
112.99; 6.4465125; 576.11991942191
114.01; 6.4112344; 582.64627934161
115.03; 6.4359914; 589.19784087819
116.05; 6.5071966; 595.82188622629
117.07; 6.600426; 602.54083503476
118.08; 6.6867938; 609.34770253649
119.10; 6.7402155; 616.20895106654
120.12; 6.7434587; 623.0735010605
121.14; 6.69138; 629.885037117
122.15; 6.5907182; 636.59410379626
123.17; 6.4569081; 643.16695757093
124.19; 6.309217; 649.58946819365
125.21; 6.1658344; 655.86602152313
126.23; 6.0402956; 662.01478178898
127.24; 5.9399477; 668.06139217894
128.26; 5.8663593; 674.03309279839
129.28; 5.8169508; 679.95449771058
130.30; 5.7868863; 685.84529822442
131.32; 5.7704675; 691.71938508485
132.33; 5.7617512; 697.5845992179
133.35; 5.7546302; 703.44256442926
134.37; 5.7429206; 709.28860976839
135.39; 5.7209606; 715.11230074563
136.41; 5.684865; 720.8992480093
137.42; 5.6340984; 726.63451702226
138.44; 5.572659; 732.30724346269
139.46; 5.509121; 737.9152909615
140.48; 5.4551069; 743.46835436422
141.50; 5.4223578; 748.98808061314
142.51; 5.4191801; 754.50457205648
143.53; 5.4474131; 760.04980351408
144.55; 5.5010117; 765.64959603721
145.57; 5.5668532; 771.31641237187
146.59; 5.6276438; 777.04511095023
147.60; 5.6660841; 782.81294003302
148.62; 5.669034; 788.5837719878
149.64; 5.6304503; 794.31532738886
150.66; 5.5523229; 799.96735245761
151.68; 5.4435309; 805.50863203157
152.69; 5.3171971; 810.92130923607
153.71; 5.1875042; 816.20196464883
154.73; 5.0669386; 821.35988946074
155.75; 4.9645892; 826.41362701692
156.77; 4.8856367; 831.38699438579
157.78; 4.8317362; 836.30549332587
158.80; 4.8017902; 841.19350856454
159.82; 4.7926754; 846.07224533684
160.84; 4.7997339; 850.95816735065
161.86; 4.817121; 855.86178869828
162.87; 4.8382531; 860.78692155375
163.89; 4.856554; 865.7306840019
164.91; 4.8664929; 870.68456380383
165.93; 4.8646547; 875.63657234832
166.94; 4.8504405; 880.57411148621
167.96; 4.8260393; 885.48681125307
168.98; 4.7955482; 890.36847234577
170.00; 4.76345; 895.21745884609
171.02; 4.7329347; 900.03538208773
172.03; 4.7046531; 904.82451590267
173.05; 4.676367; 909.58485572458
174.07; 4.6436535; 914.31189457102
175.09; 4.6014522; 918.99597439149
176.11; 4.5459551; 923.62356048221
177.12; 4.4762235; 928.180162838
178.14; 4.3950197; 932.65410321702
179.16; 4.30859; 937.04006191521
180.18; 4.2254576; 941.34139537054
181.20; 4.1545526; 945.57055064074
182.21; 4.1031675; 949.7473981125
183.23; 4.0752417; 953.89581833047
184.25; 4.0703814; 958.03929095598
185.27; 4.0838405; 962.19646439653
186.29; 4.1074774; 966.37769916395
187.30; 4.1314913; 970.58337901493
188.32; 4.1465665; 974.80440475556
189.34; 4.1459383; 979.02479103132
190.36; 4.1268778; 983.22577457745
191.38; 4.0911972; 987.39043673438
192.39; 4.0446014; 991.50766638125
193.41; 3.9950185; 995.57442277094
194.43; 3.9503405; 999.59569897744
195.45; 3.9162095; 1003.5822312708
196.47; 3.8944955; 1007.5466596233
197.48; 3.8829212; 1011.4993058477
198.50; 3.8759316; 1015.4448369274
199.52; 3.8665117; 1019.3807790354
200.54; 3.8483594; 1023.2982428596
201.56; 3.8177271; 1027.1845242926
202.57; 3.7743985; 1031.0266991143
203.59; 3.7215891; 1034.8151162682
204.61; 3.6649331; 1038.54586002
205.63; 3.6109967; 1042.2216988112
206.65; 3.5658406; 1045.8515707169
207.66; 3.5340317; 1049.4490624596
208.68; 3.5182479; 1053.0304870085
209.70; 3.5193624; 1056.6130460163
210.72; 3.5367328; 1060.2132874181
211.74; 3.5684366; 1063.8458019114
212.75; 3.6113349; 1067.5219850194
213.77; 3.6610466; 1071.2487724269
214.79; 3.7120445; 1075.0274735093
215.81; 3.7580883; 1078.8530452347
216.82; 3.7930692; 1082.7142259957
217.84; 3.8121338; 1086.5948136895
218.86; 3.8127769; 1090.4760560497
219.88; 3.7955344; 1094.3397462521
220.90; 3.7640043; 1098.1713401583
221.91; 3.7241393; 1101.9623532415
222.93; 3.6829968; 1105.7114850738
223.95; 3.6473066; 1109.4242857757
224.97; 3.6222533; 1113.1115833604
225.99; 3.6107677; 1116.7871890767
227.00; 3.6134243; 1120.4654990564
228.02; 3.6288476; 1124.1595093084
229.04; 3.6543979; 1127.8795286432
230.06; 3.6868849; 1131.6326183868
231.08; 3.723129; 1135.4226030833
232.09; 3.7603007; 1139.250426917
233.11; 3.7960698; 1143.1146622163
234.13; 3.828644; 1147.0120566332
235.15; 3.8567653; 1150.9380772919
236.17; 3.8796962; 1154.8874405987
237.18; 3.8971856; 1158.8546073751
238.20; 3.909393; 1162.8342007345
239.22; 3.9167637; 1166.821297192
240.24; 3.9198758; 1170.8115615907
241.26; 3.9192932; 1174.8012329897
242.27; 3.9154568; 1178.7869990514
243.29; 3.9086182; 1182.7658037237
244.31; 3.8988051; 1186.7346190813
245.33; 3.8858014; 1190.6901972388
246.35; 3.8691512; 1194.6288261719
247.36; 3.8482238; 1198.546151949
248.38; 3.8223896; 1202.4371796277
249.40; 3.7913247; 1206.2965845385
250.42; 3.7553949; 1210.119414522
251.44; 3.7159891; 1213.9021310566
252.45; 3.6756256; 1217.6437592621
253.47; 3.6376897; 1221.3467704242
254.49; 3.6057735; 1225.0172922855
255.51; 3.5827562; 1228.6643835042
256.53; 3.5699131; 1232.2984010093
257.54; 3.5663954; 1235.928837593
258.56; 3.5693394; 1239.5622711212
259.58; 3.5746567; 1243.2011174213
260.60; 3.5782885; 1246.8436607195
261.61; 3.5775006; 1250.4854019454
262.63; 3.5717302; 1254.1212691373
263.65; 3.5626297; 1257.7478723872
264.67; 3.5532412; 1261.3649185964
265.69; 3.5465769; 1264.9751808382
266.70; 3.5441342; 1268.5829565142
267.72; 3.5449362; 1272.1915486138
268.74; 3.5455147; 1275.8007295372
269.76; 3.5409067; 1279.4052197976
270.78; 3.5263482; 1282.9948901457
271.79; 3.499064; 1286.5567862658
272.81; 3.459498; 1290.0784059464
273.83; 3.4115163; 1293.5511823414
274.85; 3.3614803; 1296.9730242809
275.87; 3.3164957; 1300.3490738096
276.88; 3.282429; 1303.6904449012
277.90; 3.2623544; 1307.011380901
278.92; 3.2559212; 1310.3257682336
279.94; 3.2597967; 1313.6441005645
280.96; 3.2689638; 1316.9717646016
281.97; 3.2783844; 1320.3090184607
282.99; 3.2844527; 1323.652449609
284.01; 3.2857868; 1326.9972388208
285.03; 3.2831699; 1330.3393640855
286.05; 3.2787517; 1333.6769918283
287.06; 3.2748546; 1337.010652487
288.08; 3.2728223; 1340.3422443517
289.10; 3.2722973; 1343.6733017541
290.12; 3.2711466; 1347.0031878196
291.14; 3.2660459; 1350.3278816022
292.15; 3.2535404; 1353.6398453716
293.17; 3.2312791; 1356.9291480535
294.19; 3.1990791; 1360.185672537
295.21; 3.1595234; 1363.401931037
296.23; 3.117901; 1366.5758196629
297.24; 3.0814504; 1369.7126032392
298.26; 3.0580339; 1372.8255497586
299.28; 3.0545151; 1375.9349143613
300.30; 3.0752173; 1379.0653528731
301.32; 3.1208446; 1382.2422379976
302.33; 3.1881642; 1385.4876515723
303.35; 3.2705577; 1388.8169381664
304.37; 3.3593172; 1392.2365781168
305.39; 3.4453475; 1395.7437932221
306.41; 3.5208169; 1399.3278328547
307.42; 3.5803247; 1402.9724488559
308.44; 3.6213236; 1406.6588000497
309.46; 3.6437893; 1410.3680203633
310.48; 3.6493803; 1414.0829319955
311.49; 3.6404799; 1417.7887834129
312.51; 3.619501; 1421.4732792089
313.53; 3.5886691; 1425.1263894963
314.55; 3.5502554; 1428.7403963047
315.57; 3.5070062; 1432.3103772468
316.58; 3.4624144; 1435.8349657055
317.60; 3.4205451; 1439.3169329658
318.62; 3.3853334; 1442.76305624
319.64; 3.3595398; 1446.1829227841
320.66; 3.3437472; 1449.5867131357
321.67; 3.3358368; 1452.9824510071
322.69; 3.3312481; 1456.3735177922
323.71; 3.3240589; 1459.7572662726
324.73; 3.3086171; 1463.1252956726
325.75; 3.2812375; 1466.4654538364
326.76; 3.2414253; 1469.7650848816
327.78; 3.1922286; 1473.0146358356
328.80; 3.139601; 1476.2106141891
329.82; 3.0909686; 1479.3570868288
330.84; 3.0534361; 1482.4653529804
331.85; 3.0321524; 1485.5519532338
332.87; 3.0292686; 1488.6356179544
333.89; 3.0437065; 1491.7339798243
334.91; 3.0716934; 1494.860831111
335.93; 3.107806; 1498.0244435132
336.94; 3.1461616; 1501.2271002402
337.96; 3.1814202; 1504.4656486901
338.98; 3.209392; 1507.7326713019
340.00; 3.2272131; 1511.0178350204
341.02; 3.2331998; 1514.3090928573
342.03; 3.2265704; 1517.593602242
343.05; 3.2072129; 1520.8584065924
344.07; 3.1755992; 1524.0910295021
345.09; 3.1328418; 1527.2801272842
346.11; 3.0808051; 1530.4162539271
347.12; 3.0221431; 1533.4926652082
348.14; 2.9601674; 1536.5059878376
349.16; 2.8985152; 1539.456551232
350.18; 2.8406759; 1542.3482367216
351.20; 2.7894912; 1545.1878183895
352.21; 2.7467622; 1547.9839037366
353.23; 2.7130587; 1550.7456804153
354.25; 2.6877612; 1553.4817053539
355.27; 2.6692961; 1556.1989335831
356.28; 2.6554859; 1558.9021036522
357.30; 2.6439351; 1561.5935155266
358.32; 2.6324025; 1564.2731876871
359.34; 2.6191504; 1566.9393697541
360.36; 2.6032771; 1569.5893935056
361.37; 2.5850188; 1572.2208310898
362.39; 2.5659575; 1574.8328650764
363.41; 2.5490245; 1577.4276620517
364.43; 2.5381809; 1580.0114206421
365.45; 2.5377144; 1582.5947044256
366.46; 2.551219; 1585.1917353214
367.48; 2.5804674; 1587.8185398202
368.50; 2.624504; 1590.4901716513
369.52; 2.679298; 1593.2175813606
370.54; 2.7381856; 1596.0049361652
371.55; 2.7931103; 1598.8482018795
372.57; 2.8364057; 1601.7355404424
373.59; 2.8626594; 1604.6496041938
374.61; 2.8701169; 1607.5712593423
375.63; 2.8611873; 1610.4838245033
376.64; 2.8418657; 1613.3767211758
377.66; 2.8202125; 1616.2475758503
378.68; 2.8043189; 1619.1022514633
379.70; 2.8003454; 1621.9528821904
380.72; 2.8111875; 1624.8145497399
381.73; 2.8361157; 1627.7015931561
382.75; 2.8714267; 1630.6245816452
383.77; 2.911832; 1633.5887009246
384.79; 2.9520992; 1636.5938105228
385.81; 2.9884173; 1639.635890352
386.82; 3.0190829; 1642.7091864264
387.84; 3.044362; 1645.8082156125
388.86; 3.0656711; 1648.9289364706
389.88; 3.0844526; 1652.0687760974
390.90; 3.1012163; 1655.2256804477
391.91; 3.1151357; 1658.3967541318
392.93; 3.1243694; 1661.5772273269
393.95; 3.1269853; 1664.7603634406
394.97; 3.1221142; 1667.938541002
395.99; 3.1108453; 1671.1052472314
397.00; 3.0964542; 1674.2573039791
398.02; 3.0838074; 1677.3964868696
399.04; 3.0781216; 1680.5298817851
400.06; 3.0835463; 1683.6687988849
401.07; 3.1021491; 1686.8266528028
402.09; 3.1337467; 1690.0166716916
403.11; 3.1766898; 1693.2504048558
404.13; 3.229286; 1696.5376787035
405.15; 3.2912279; 1699.8880067299
406.16; 3.3643318; 1703.3127513409
407.18; 3.4521391; 1706.8268799802
408.20; 3.5584121; 1710.449189927
409.22; 3.6850707; 1714.2004329176
410.24; 3.8304408; 1718.0996563524
411.25; 3.9886501; 1722.1599300721
412.27; 4.1506063; 1726.3850682254
413.29; 4.3063632; 1730.7687601675
414.31; 4.4480999; 1735.2967339407
415.33; 4.5726505; 1739.951494874
416.34; 4.6826721; 1744.7182530427
417.36; 4.7860681; 1749.59026385
418.38; 4.8939664; 1754.5721104804
419.40; 5.018084; 1759.6803034142
420.42; 5.1684575; 1764.941570091
421.43; 5.3522324; 1770.3899117137
422.45; 5.5736314; 1776.0636279993
423.47; 5.8346686; 1782.0030688143
424.49; 6.135924; 1788.2491746618
425.51; 6.4768892; 1794.8423683988
426.52; 6.8559393; 1801.8214187894
427.54; 7.270604; 1809.2225799205
428.56; 7.7191361; 1817.0803273246
429.58; 8.2041715; 1825.4318198471
430.60; 8.7385275; 1834.3272638018
431.61; 9.3521441; 1843.8473428888
432.63; 10.098242; 1854.1269174577
433.65; 11.056346; 1865.381801051
434.67; 12.330101; 1877.9333122662
435.69; 14.038735; 1892.2241382177
436.70; 16.302331; 1908.8192078538
437.72; 19.222379; 1928.3867605093
438.74; 22.860055; 1951.6573103027
439.76; 27.215319; 1979.3613305341
440.78; 32.210112; 2012.1498350284
441.79; 37.678901; 2050.5053302588
442.81; 43.369471; 2094.6535800388
443.83; 48.956175; 2144.4888537395
444.85; 54.066468; 2199.5261846401
445.87; 58.319458; 2258.8928763334
446.88; 61.372517; 2321.3674502108
447.90; 62.969201; 2385.4673796263
448.92; 62.979853; 2449.5781521485
449.94; 61.426049; 2512.1072194906
450.95; 58.482215; 2571.6395910129
451.97; 54.452055; 2627.0694337458
452.99; 49.72305; 2677.6853533191
454.01; 44.707627; 2723.1957888304
455.03; 39.783059; 2763.6932263401
456.04; 35.242511; 2799.5685813428
457.06; 31.266693; 2831.3967255231
458.08; 27.920105; 2859.8181877524
459.10; 25.169532; 2885.4396853196
460.12; 22.917233; 2908.7684395926
461.13; 21.038616; 2930.1848430261
462.15; 19.414741; 2949.9482114704
463.17; 17.95321; 2968.223804177
464.19; 16.595571; 2985.1173788591
465.21; 15.313587; 3000.7059495829
466.22; 14.09933; 3015.0584588713
467.24; 12.954437; 3028.2455169553
468.26; 11.882387; 3040.3412740414
469.28; 10.885179; 3051.4219169164
470.30; 9.9635786; 3061.5644099831
471.31; 9.1188204; 3070.846975671
472.33; 8.3537506; 3079.3507332886
473.35; 7.6723489; 3087.1608533683
474.37; 7.0778608; 3094.3658102572
475.39; 6.5706254; 3101.0544233861
476.40; 6.1467981; 3107.3115986319
477.42; 5.798596; 3113.2143191647
478.44; 5.5158361; 3118.8292023257
479.46; 5.2878911; 3124.2120473058
480.48; 5.1050729; 3129.4087912035
481.49; 4.9588896; 3134.4567268729
482.51; 4.8413319; 3139.384993786
483.53; 4.7439247; 3144.2141044492
484.55; 4.6574299; 3148.9551671127
485.57; 4.572714; 3153.6099926276
486.58; 4.4826253; 3158.1731117735
487.60; 4.3840863; 3162.6359224008
488.62; 4.2793465; 3166.992112484
489.64; 4.175598; 3171.2426910155
490.66; 4.0828134; 3175.3988188493
491.67; 4.0104401; 3179.4812737788
492.69; 3.9641038; 3183.5165603917
493.71; 3.9435258; 3187.5308994995
494.73; 3.9424083; 3191.5441009994
495.74; 3.9503007; 3195.5653366025
496.76; 3.9557356; 3199.5921047481
497.78; 3.9495079; 3203.6125333615
498.80; 3.9270054; 3207.6100554048
499.82; 3.8889337; 3211.5688220844
500.83; 3.8403996; 3215.4781831168
501.85; 3.7888735; 3219.3350928223
502.87; 3.7418384; 3223.1441228873
503.89; 3.7048878; 3226.91553878
504.91; 3.680732; 3230.6623651744
505.92; 3.6691784; 3234.3974304175
506.94; 3.667824; 3238.1311169913
507.96; 3.673062; 3241.8701356466
508.98; 3.6810397; 3245.6172751728
510.00; 3.6883683; 3249.3718749205
511.01; 3.6925549; 3253.130736428
512.03; 3.692228; 3256.8892652324
513.05; 3.6872426; 3260.6427191135
514.07; 3.6786922; 3264.3874690021
515.09; 3.6687976; 3268.1221466289
516.10; 3.6606229; 3271.8485027973
517.12; 3.6576103; 3275.5717922938
518.14; 3.6630039; 3279.3005722168
519.16; 3.6792975; 3283.0459383447
520.18; 3.7078542; 3286.8203738989
521.19; 3.7487863; 3290.636476584
522.21; 3.8010837; 3294.5058157929
523.23; 3.8628741; 3298.4380549637
524.25; 3.9316546; 3302.4403096722
525.27; 4.0043691; 3306.5165846268
526.28; 4.0773158; 3310.6671161173
527.30; 4.1460007; 3314.8875658922
528.32; 4.2051493; 3319.1682264158
529.34; 4.2490825; 3323.4936090235
530.36; 4.2725507; 3327.8428813062
531.37; 4.2719251; 3332.1915166696
532.39; 4.2464413; 3336.5142106531
533.41; 4.1990747; 3340.7886874652
534.43; 4.136647; 3344.9996156127
535.45; 4.0689561; 3349.1416373246
536.46; 4.007016; 3353.2206066922
537.48; 3.9608088; 3357.2525390985
538.50; 3.9371578; 3361.2603958185
539.52; 3.9383542; 3365.2694704476
540.54; 3.961977; 3369.3025920786
541.55; 4.0019965; 3373.3764518248
542.57; 4.0508551; 3377.5000475028
543.59; 4.1019104; 3381.6756153197
544.61; 4.1515108; 3385.901674124
545.62; 4.2000896; 3390.1771841078
546.64; 4.2519769; 3394.5055130614
547.66; 4.3140184; 3398.8969976831
548.68; 4.3934502; 3403.3693403804
549.70; 4.4956685; 3407.9457368795
550.71; 4.6225332; 3412.6512761802
551.73; 4.7716394; 3417.5085992239
552.75; 4.9366851; 3422.5339316177
553.77; 5.1087435; 3427.7344120756
554.79; 5.2780261; 3433.1072149261
555.80; 5.4356441; 3438.6404660207
556.82; 5.5749622; 3444.3155370024
557.84; 5.6923345; 3450.1100879094
558.86; 5.787239; 3456.0012475111
559.88; 5.8620122; 3461.9685229789
560.89; 5.9214457; 3467.9962991462
561.91; 5.9724413; 3474.0759866446
562.93; 6.0237525; 3480.2079067194
563.95; 6.0856535; 3486.4028393847
564.97; 6.1692725; 3492.682892531
565.98; 6.2853754; 3499.0811334594
567.00; 6.4426158; 3505.6394383657
568.02; 6.6455955; 3512.4043677691
569.04; 6.8933806; 3519.421531722
570.06; 7.1792166; 3526.7296644454
571.07; 7.4919656; 3534.3561621072
572.09; 7.8192595; 3542.3158308229
573.11; 8.1516723; 3550.6138814344
574.13; 8.4866312; 3559.2529057712
575.15; 8.8306103; 3568.2420860368
576.16; 9.1985589; 3577.6058220979
577.18; 9.610478; 3587.3888740402
578.20; 10.086291; 3597.6562829442
579.22; 10.641188; 3608.4885535368
580.24; 11.283997; 3619.9751752923
581.25; 12.020519; 3632.2115449916
582.27; 12.862291; 3645.3048019665
583.29; 13.839175; 3659.3924854318
584.31; 15.012372; 3674.6744321892
