#Wavenumber (cm^-1);  Spectrum (K*cm*km*mol^-1); Spectrum (normalised);  Integral (K*km*mol^-1)
0; 13.344364; 0.000809405687764; 13.583986760241
1.02; 13.739498; 0.000833372637933; 27.570202960685
2.04; 14.87864; 0.000902467576738; 42.716016696859
3.05; 16.635196; 0.001009011913904; 59.649928882076
4.07; 18.834531; 0.001142413120458; 78.822668648807
5.09; 21.295303; 0.00129167185269; 100.50036867833
6.11; 23.866459; 0.001447625953652; 124.79539432251
7.13; 26.449371; 0.001604293117692; 151.71971280963
8.14; 29.001281; 0.00175907984778; 181.24176586231
9.16; 31.523571; 0.001912069969466; 213.33140065873
10.18; 34.043339; 0.002064907118621; 247.98605083337
11.2; 36.59742; 0.002219825531249; 285.24064491303
12.22; 39.224444; 0.002379168319522; 325.16943604935
13.23; 41.964982; 0.002545396327446; 367.88797640284
14.25; 44.865024; 0.002721299089807; 413.5586348309
15.27; 47.97643; 0.002910022187689; 462.396570673
16.29; 51.350118; 0.003114654064933; 514.66877477743
17.31; 55.022394; 0.003337396870917; 570.67919742741
18.32; 58.999404; 0.003578623392788; 630.73804430919
19.34; 63.246703; 0.003836244360578; 695.12045861901
20.36; 67.689328; 0.004105712875047; 764.02527353899
21.38; 72.223185; 0.004380715088963; 837.54535932944
22.4; 76.733463; 0.004654287112822; 915.65671303645
23.41; 81.11275; 0.004919913845288; 998.22599267799
24.43; 85.272293; 0.005172211951267; 1085.0295074269
25.45; 89.144005; 0.005407051596992; 1175.7742578837
26.47; 92.676331; 0.005621305701229; 1270.1147633643
27.48; 95.83075; 0.005812637763229; 1367.6663316118
28.5; 98.5854; 0.005979721737991; 1468.0220142777
29.52; 100.94767; 0.006123005807133; 1570.7823880686
30.54; 102.97088; 0.006245724108398; 1675.6022988138
31.56; 104.76472; 0.006354529915774; 1782.2482676032
32.57; 106.4888; 0.006459104413154; 1890.6492677262
33.59; 108.32383; 0.006570408610134; 2000.9182560429
34.61; 110.42552; 0.006697887135144; 2113.326673556
35.63; 112.87571; 0.006846504013558; 2228.2292729547
36.65; 115.6511; 0.007014845978133; 2345.9570997856
37.66; 118.62647; 0.007195317778902; 2466.7137228582
38.68; 121.61774; 0.007376753998091; 2590.5153293691
39.7; 124.45434; 0.007548808670304; 2717.2044782056
40.72; 127.05614; 0.007706621490639; 2846.5421425261
41.74; 129.48444; 0.007853910625707; 2978.3517175603
42.75; 131.94305; 0.008003038221297; 3112.6640477808
43.77; 134.72189; 0.008171589446472; 3249.805121817
44.79; 138.0979; 0.008376362165198; 3390.3828200219
45.81; 142.22564; 0.008626731252373; 3535.1623877431
46.83; 147.05777; 0.008919825288628; 3684.860856596
47.84; 152.32732; 0.009239451142806; 3839.9234908843
48.86; 157.60404; 0.0095595118951; 4000.3575992356
49.88; 162.41102; 0.009851080451906; 4165.6850098833
50.9; 166.36566; 0.010090950115912; 4335.0380740568
51.92; 169.29935; 0.010268893806008; 4507.3775068998
52.93; 171.31603; 0.010391216028513; 4681.7698357244
53.95; 172.76952; 0.010479377822744; 4857.6417522675
54.97; 174.16591; 0.010564076202399; 5034.935137953
55.99; 176.02143; 0.010676623225379; 5214.1173550973
57.01; 178.71917; 0.010840255310064; 5396.0457556887
58.02; 182.40716; 0.011063951252592; 5581.7283734047
59.04; 186.96517; 0.011340418472677; 5772.0508492862
60.06; 192.04564; 0.011648575632847; 5967.5450190544
61.08; 197.1718; 0.011959504131229; 6168.2574020023
62.1; 201.86115; 0.012243937811389; 6373.7433372798
63.11; 205.73823; 0.012479103054477; 6583.175981132
64.13; 208.6081; 0.012653175726741; 6795.5300275137
65.15; 210.476; 0.012766473661672; 7009.7855140413
66.17; 211.516; 0.012829555118029; 7225.0996735646
67.19; 212.00479; 0.012859202795964; 7440.9114059622
68.2; 212.2442; 0.012873724268528; 7656.9668385306
69.22; 212.49511; 0.012888943276427; 7873.2776933951
70.24; 212.93868; 0.012915848124115; 8090.0400854154
71.26; 213.66927; 0.012960162240653; 8307.5461789435
72.27; 214.71302; 0.013023471154185; 8526.1147663291
73.29; 216.05815; 0.013105060345905; 8746.052638168
74.31; 217.68072; 0.013203477729213; 8967.6422183808
75.33; 219.5538; 0.013317089858322; 9191.1385091223
76.35; 221.6363; 0.013443404409151; 9416.7546975179
77.36; 223.84819; 0.013577567142325; 9644.6224938682
78.38; 226.04656; 0.013710909816566; 9874.7281327544
79.4; 228.01956; 0.013830582617905; 10106.842200523
80.42; 229.51012; 0.013920992902123; 10340.473598135
81.44; 230.27013; 0.013967091496013; 10574.878653215
82.45; 230.13211; 0.013958719858892; 10809.143209023
83.47; 229.07486; 0.013894592099533; 11042.331536204
84.49; 227.25698; 0.013784328140031; 11273.669339829
85.51; 224.99996; 0.013647428035583; 11502.709591475
86.53; 222.71937; 0.013509098286975; 11729.428295922
87.54; 220.82218; 0.013394023759873; 11954.21574734
88.56; 219.60349; 0.01332010381752; 12177.762618946
89.58; 219.17936; 0.013294378107823; 12400.87774762
90.6; 219.48228; 0.013312751795092; 12624.301237444
91.62; 220.32331; 0.013363764677053; 12848.580858815
92.63; 221.49964; 0.013435115263165; 13074.057932748
93.65; 222.90678; 0.013520465686721; 13300.967416015
94.67; 224.60989; 0.013623768243582; 13529.610589049
95.69; 226.8415; 0.013759127098217; 13760.525444493
96.71; 229.91938; 0.013945816668304; 13994.573453478
97.72; 234.10869; 0.014199920299006; 14232.886002294
98.74; 239.47557; 0.014525449728325; 14476.661803509
99.76; 245.7858; 0.014908198284427; 14726.861146773
100.78; 252.48917; 0.015314792844137; 14983.884225652
101.8; 258.80235; 0.015697720333216; 15247.333846901
102.81; 263.87067; 0.016005140532141; 15515.942805495
103.83; 266.96357; 0.016192741144031; 15787.700199273
104.85; 267.64857; 0.016234289987881; 16060.154891563
105.87; 265.89707; 0.016128052323642; 16330.826634051
106.89; 262.09701; 0.015897558747639; 16597.63008167
107.9; 256.97459; 0.015586857099879; 16859.219126354
108.92; 251.4497; 0.015251743535061; 17115.184074914
109.94; 246.46145; 0.014949180001723; 17366.071198913
110.96; 242.79983; 0.014727083538045; 17613.230946906
111.98; 240.97113; 0.014616163288776; 17858.529154529
112.99; 241.11355; 0.014624801808982; 18103.972346579
114.01; 242.97067; 0.014737445880356; 18351.306002175
115.03; 245.92524; 0.014916656051999; 18601.647280754
116.05; 249.09276; 0.015108782758382; 18855.212957428
117.07; 251.46865; 0.015252892951982; 19111.197196029
118.08; 252.11339; 0.015291999815608; 19367.837745384
119.1; 250.34646; 0.015184826240915; 19622.679640649
120.12; 245.90861; 0.014915647355249; 19873.00399243
121.14; 239.04793; 0.014499511118713; 20116.344469692
122.15; 230.49627; 0.013980808073456; 20350.97972476
123.17; 221.32697; 0.013424641921752; 20576.281031098
124.19; 212.71894; 0.01290251974025; 20792.819729676
125.21; 205.68343; 0.012475779146969; 21002.196587122
126.23; 200.8276; 0.012181247581372; 21206.630416996
127.24; 198.22343; 0.012023291008102; 21408.413313241
128.26; 197.42245; 0.011974707368763; 21609.380845053
129.28; 197.61266; 0.0119862446032; 21810.542001926
130.3; 197.86955; 0.012001826329472; 22011.964668437
131.32; 197.42321; 0.011974753466751; 22212.932978562
132.33; 195.8592; 0.011879888054677; 22412.309193565
133.35; 193.19446; 0.011718257593127; 22608.972822028
134.37; 189.81212; 0.011513100926691; 22802.193369619
135.39; 186.28626; 0.011299239019278; 22991.824744749
136.41; 183.16267; 0.011109776897872; 23178.276435156
137.42; 180.77199; 0.010964769613177; 23362.294524255
138.44; 179.13575; 0.010865523072649; 23544.646989124
139.46; 177.98911; 0.010795973340806; 23725.832220033
140.48; 176.90237; 0.010730056858228; 23905.911200401
141.5; 175.45009; 0.010641968456846; 24084.51182152
142.51; 173.36432; 0.01051545556336; 24260.989213874
143.53; 170.6196; 0.010348973895195; 24434.672608079
144.55; 167.42603; 0.01015526711964; 24605.10508352
145.57; 164.1411; 0.009956018880765; 24772.193642233
146.59; 161.13899; 0.009773925158704; 24936.226176316
147.6; 158.68675; 0.009625183937035; 25097.762436779
148.62; 156.86957; 0.009514962436206; 25257.448888247
149.64; 155.58519; 0.00943705805071; 25415.827894606
150.66; 154.60107; 0.009377366009528; 25573.205114026
151.68; 153.64661; 0.009319473002956; 25729.610729166
152.69; 152.50367; 0.009250147695525; 25884.852884806
153.71; 151.06439; 0.009162847812347; 26038.629918154
154.73; 149.34078; 0.009058301822933; 26190.652386121
155.75; 147.43027; 0.008942419367948; 26340.730040552
156.77; 145.4567; 0.008822711993119; 26488.798683505
157.78; 143.5123; 0.008704773931831; 26634.888007584
158.8; 141.62264; 0.008590156138736; 26779.053742751
159.82; 139.74502; 0.008476268634808; 26921.308144232
160.84; 137.79712; 0.008358118280157; 27061.579661532
161.86; 135.70196; 0.008231035833907; 27199.71840301
162.87; 133.43073; 0.008093273818405; 27335.545132741
163.89; 131.02718; 0.007947485900688; 27468.925144564
164.91; 128.6053; 0.007800586172302; 27599.839788879
165.93; 126.32158; 0.007662066572772; 27728.429710969
166.94; 124.33128; 0.00754134443567; 27854.993588071
167.96; 122.74282; 0.007444996002819; 27979.940485109
168.98; 121.58441; 0.007374732358725; 28103.708168919
170; 120.7925; 0.007326698862472; 28226.669723791
171.02; 120.22551; 0.00729230794426; 28349.054105116
172.03; 119.69883; 0.007260362039035; 28470.902351301
173.05; 119.03161; 0.007219891645468; 28592.071391381
174.07; 118.09249; 0.007162929090378; 28712.284447534
175.09; 116.83197; 0.007086471939063; 28831.21435551
176.11; 115.29244; 0.006993091367424; 28948.577082728
177.12; 113.593; 0.006890011415317; 29064.209852459
178.14; 111.89348; 0.006786926610791; 29178.112583506
179.16; 110.34778; 0.006693171796281; 29290.441856968
180.18; 109.06021; 0.006615073920549; 29401.460444501
181.2; 108.05765; 0.006554263396621; 29511.458470209
182.21; 107.28544; 0.006507424808724; 29620.670417239
183.23; 106.6276; 0.006467523361368; 29729.212707885
184.25; 105.94409; 0.006426064893835; 29837.059221174
185.27; 105.11261; 0.006375631269478; 29944.059326149
186.29; 104.0613; 0.006311863802283; 30049.989234096
187.3; 102.78265; 0.00623430697135; 30154.617539464
188.32; 101.3261; 0.006145959572065; 30257.76313841
189.34; 99.774175; 0.006051827178645; 30359.328942715
190.36; 98.213034; 0.005957135786474; 30459.305573454
191.38; 96.708911; 0.005865902835148; 30557.751071209
192.39; 95.298542; 0.005780356555801; 30654.760874743
193.41; 93.995103; 0.005701296141962; 30750.443833834
194.43; 92.804352; 0.005629070846541; 30844.914659211
195.45; 91.74164; 0.005564611788226; 30938.303689714
196.47; 90.840651; 0.00550996207834; 31030.775552867
197.48; 90.148985; 0.005468008906616; 31122.543329719
198.5; 89.71202; 0.005441504686831; 31213.866295298
199.52; 89.55203; 0.005431800453944; 31305.026397337
200.54; 89.651851; 0.005437855121304; 31396.288113323
201.56; 89.95065; 0.005455978848302; 31487.853993345
202.57; 90.35431; 0.005480462945103; 31579.83078149
203.59; 90.757075; 0.005504892755459; 31672.217567604
204.61; 91.066815; 0.005523680111509; 31764.919655262
205.63; 91.225429; 0.005533300882776; 31857.783205939
206.65; 91.218619; 0.005532887820548; 31950.639823543
207.66; 91.073946; 0.005524112644071; 32043.349170527
208.68; 90.850637; 0.005510567781631; 32135.831199116
209.7; 90.626747; 0.005496987678493; 32228.085316416
210.72; 90.488447; 0.005488599057903; 32320.198651054
211.74; 90.523056; 0.005490698275329; 32412.347216034
212.75; 90.813842; 0.005508335971837; 32504.791788741
213.77; 91.432857; 0.005545882479247; 32597.866491715
214.79; 92.429057; 0.005606307235807; 32691.955283712
215.81; 93.812548; 0.005690223223438; 32787.452409312
216.82; 95.540025; 0.005795003766691; 32884.708031837
217.84; 97.509096; 0.005914438253566; 32983.968084142
218.86; 99.568245; 0.006039336443734; 33085.324260594
219.88; 101.54451; 0.006159207284452; 33188.692189569
220.9; 103.28403; 0.006264718298839; 33293.830871942
221.91; 104.69416; 0.006350250081581; 33400.405006996
222.93; 105.77303; 0.006415689207369; 33508.077388507
223.95; 106.6146; 0.006466734843164; 33616.606455342
224.97; 107.3846; 0.006513439382966; 33725.919345903
225.99; 108.27249; 0.006567294569778; 33836.136063512
227; 109.43345; 0.006637712884751; 33947.534595458
228.02; 110.93883; 0.006729022079723; 34060.465541586
229.04; 112.75137; 0.006838962140208; 34175.241565817
230.06; 114.73396; 0.00695921662536; 34292.035787145
231.08; 116.68961; 0.007077837058172; 34410.820773417
232.09; 118.41955; 0.007182766995297; 34531.366763578
233.11; 119.78091; 0.007265340621668; 34653.298560728
234.13; 120.7254; 0.007322628895432; 34776.191805101
235.15; 121.30731; 0.007357924789921; 34899.677411194
236.17; 121.65965; 0.007379296059471; 35023.521685125
237.18; 121.94758; 0.007396760524595; 35147.65905648
238.2; 122.31533; 0.007419066491494; 35272.170786955
239.22; 122.84385; 0.007451124002373; 35397.220521189
240.24; 123.53138; 0.007492826303997; 35522.970135748
241.26; 124.30092; 0.007539502942386; 35649.503107566
242.27; 125.02877; 0.007583650863549; 35776.777002593
243.29; 125.5824; 0.007617231427667; 35904.61447175
244.31; 125.85386; 0.007633696900881; 36032.728265557
245.33; 125.77853; 0.007629127741162; 36160.765382986
246.35; 125.33598; 0.007602284761825; 36288.352007017
247.36; 124.53664; 0.00755380059709; 36415.124937194
248.38; 123.4036; 0.007485075776599; 36540.744478123
249.4; 121.95949; 0.007397482928581; 36664.89397547
250.42; 120.22519; 0.007292288534581; 36787.27802645
251.44; 118.2309; 0.007171324383045; 36907.631983523
252.45; 116.0339; 0.007038064806492; 37025.749482141
253.47; 113.73302; 0.006898504362932; 37141.52478897
254.49; 111.47048; 0.006761269441523; 37254.996928867
255.51; 109.41537; 0.006636616237895; 37366.377054912
256.53; 107.73053; 0.006534421852387; 37476.042084295
257.54; 106.53128; 0.006461681048026; 37584.486326253
258.56; 105.849; 0.006420297186446; 37692.236041827
259.58; 105.61262; 0.006405959499279; 37799.745131178
260.6; 105.65633; 0.006408610740103; 37907.298717752
261.61; 105.75427; 0.006414551314945; 38014.951997373
262.63; 105.67411; 0.006409689190386; 38122.523680809
263.65; 105.23554; 0.00638308761893; 38229.648922172
264.67; 104.35735; 0.006329820788009; 38335.880201035
265.69; 103.08011; 0.006252349480973; 38440.811301315
266.7; 101.5584; 0.006160049785826; 38544.193367838
267.72; 100.02523; 0.006067054981555; 38646.014737087
268.74; 98.738933; 0.005989034319952; 38746.526710144
269.76; 97.927023; 0.005939787718768; 38846.212193339
270.78; 97.741296; 0.005928522401802; 38945.708615242
271.79; 98.234045; 0.005958410213858; 39045.706634145
272.81; 99.358707; 0.006026626864694; 39146.849510271
273.83; 100.99157; 0.006125668572455; 39249.654573582
274.85; 102.96642; 0.006245453585999; 39354.469948759
275.87; 105.11224; 0.006375608827037; 39461.469673192
276.88; 107.28535; 0.006507419349752; 39570.68153363
277.9; 109.39043; 0.006635103496047; 39682.036270143
278.92; 111.38828; 0.006756283580261; 39795.424732064
279.94; 113.29133; 0.006871713547107; 39910.750417972
280.96; 115.14925; 0.006984406142678; 40027.967388034
281.97; 117.02798; 0.007098360973929; 40147.096817452
282.99; 118.98567; 0.007217105143444; 40268.219089977
284.01; 121.04968; 0.007342298178766; 40391.442440082
285.03; 123.19917; 0.007472676024558; 40516.853874954
286.05; 125.3581; 0.007603626455878; 40644.463011586
287.06; 127.40254; 0.007727632468026; 40774.153297574
288.08; 129.18305; 0.007835629740966; 40905.656064581
289.1; 130.55898; 0.007919087114278; 41038.559467934
290.12; 131.43662; 0.007972320584814; 41172.356276783
291.14; 131.80021; 0.007994374225887; 41306.523203594
292.15; 131.72466; 0.007989791722015; 41440.613221031
293.17; 131.36302; 0.007967856358671; 41574.335105266
294.19; 130.90874; 0.007940301893293; 41707.594552906
295.21; 130.54111; 0.007918003205023; 41840.479769122
296.23; 130.36883; 0.007907553519157; 41973.189611598
297.24; 130.3888; 0.007908764804429; 42105.919786678
298.26; 130.47392; 0.007913927779011; 42238.736608096
299.28; 130.3955; 0.007909171194581; 42371.473599073
300.3; 129.87573; 0.007877644417109; 42503.681488419
301.32; 128.65641; 0.007803686261951; 42634.648160876
302.33; 126.56535; 0.007676852502211; 42763.486224102
303.35; 123.56294; 0.007494740583576; 42889.267969614
304.37; 119.75758; 0.007263925534767; 43011.176014813
305.39; 115.3878; 0.00699887545173; 43128.63581975
306.41; 110.77827; 0.006719283273345; 43241.403317061
307.42; 106.28212; 0.006446568186808; 43349.593932088
308.44; 102.22412; 0.006200429196524; 43453.653673014
309.46; 98.85562; 0.0059961119987; 43554.284428194
310.48; 96.32743; 0.005842764011059; 43652.341595315
311.49; 94.680766; 0.005742885200241; 43748.722529321
312.51; 93.852988; 0.005692676121606; 43844.260821602
313.53; 93.693449; 0.005682999244236; 43939.636709965
314.55; 93.985707; 0.005700726225266; 44035.31010435
315.57; 94.474066; 0.00573034776079; 44131.480626632
316.58; 94.893506; 0.005755788997381; 44228.078120753
317.6; 95.001832; 0.005762359537613; 44324.785885917
318.62; 94.611322; 0.005738673057303; 44421.096128627
319.64; 93.615291; 0.00567825855148; 44516.392455279
320.66; 92.003967; 0.005580523297074; 44610.048523152
321.67; 89.864867; 0.005450775659292; 44701.527079962
322.69; 87.365709; 0.005299188614768; 44790.461601898
323.71; 84.722021; 0.005138835067467; 44876.704963185
324.73; 82.155868; 0.004983184424703; 44960.336091843
325.75; 79.854924; 0.004843620099208; 45041.624958229
326.76; 77.941428; 0.004727556527657; 45120.965968889
327.78; 76.458121; 0.004637586175941; 45198.797036853
328.8; 75.373512; 0.004571798949694; 45275.524020047
329.82; 74.603354; 0.004525084826362; 45351.467014974
330.84; 74.040562; 0.004490948538876; 45426.837112455
331.85; 73.583798; 0.004463243405865; 45501.742243128
332.87; 73.156223; 0.004437308738844; 45576.212121349
333.89; 72.710444; 0.004410269903716; 45650.228215929
334.91; 72.221703; 0.004380625197888; 45723.746793424
335.93; 71.676782; 0.004347572880311; 45796.71066481
336.94; 71.068308; 0.004310665739855; 45869.055135535
337.96; 70.401795; 0.004270238229546; 45940.721124518
338.98; 69.71609; 0.004228646623747; 46011.689095944
340; 69.109255; 0.004191838897239; 46082.039335208
341.02; 68.75509; 0.004170356931864; 46152.029049412
342.03; 68.894366; 0.004178804751975; 46222.160541139
343.05; 69.791426; 0.004233216147397; 46293.205201378
344.07; 71.660179; 0.004346565821254; 46366.152171694
345.09; 74.579224; 0.004523621215264; 46442.070603535
346.11; 78.427208; 0.0047570216333; 46521.906116567
347.12; 82.870334; 0.005026520536047; 46606.264540635
348.14; 87.421097; 0.005302548187561; 46695.255445378
349.16; 91.563183; 0.005553787434902; 46788.462814938
350.18; 94.909854; 0.005756780589351; 46885.076950612
351.2; 97.342958; 0.005904361112223; 46984.167881308
352.21; 99.07699; 0.006009539250617; 47085.023981461
353.23; 100.61181; 0.006102634136045; 47187.44245968
354.25; 102.57486; 0.006221703417681; 47291.859240519
355.27; 105.49695; 0.006398943506917; 47399.250581574
356.28; 109.59819; 0.006647705230059; 47510.816812368
357.3; 114.6682; 0.006955227936351; 47627.544091837
358.32; 120.09981; 0.007284683579776; 47749.800511678
359.34; 125.08441; 0.007587025721464; 47877.131044495
360.36; 128.91554; 0.007819403855975; 48008.361505996
361.37; 131.29854; 0.007963945308377; 48142.017749574
362.39; 132.54851; 0.008039762546841; 48276.946416211
363.41; 133.58618; 0.008102702676473; 48412.931380803
364.43; 135.70515; 0.008231229324143; 48551.073364218
365.45; 140.16559; 0.008501778411827; 48693.755889415
366.46; 147.73771; 0.008961067216931; 48844.146498775
367.48; 158.34865; 0.009604676398194; 49005.338590755
368.5; 170.96418; 0.010369874480033; 49179.372753627
369.52; 183.76547; 0.011146339880461; 49366.438072504
370.54; 194.58527; 0.011802617516507; 49564.517478186
371.55; 201.4789; 0.012220752343416; 49769.61430717
372.57; 203.25553; 0.012328514273999; 49976.519670008
373.59; 199.80336; 0.0121191220517; 50179.910865934
374.61; 192.10679; 0.01165228470117; 50375.467290847
375.63; 181.95283; 0.011036393754451; 50560.687419376
376.64; 171.42346; 0.010397732221644; 50735.189105215
377.66; 162.33708; 0.00984659560298; 50900.441249646
378.68; 155.81172; 0.009450798283699; 51059.050861689
