#Wavenumber (cm^-1);  Spectrum at 400.00 K (cm*km*mol^-1);  Integral (km*mol^-1)
0.00; 0.00011010598; 0.00011208313704913
1.02; 0.00011476684; 0.0002289108231589
2.04; 0.00012851098; 0.00035972945937687
3.05; 0.00015068541; 0.0005131207066469
4.07; 0.00018038368; 0.00069674351182043
5.09; 0.00021664124; 0.00091727494831987
6.11; 0.00025859063; 0.0011805090558301
7.13; 0.00030552703; 0.0014915223863382
8.14; 0.00035688131; 0.0018548121596826
9.16; 0.00041214428; 0.00227435725206
10.18; 0.0004708081; 0.0027536195859482
11.20; 0.00053237769; 0.0032955571005557
12.22; 0.00059645998; 0.0039027276191543
13.23; 0.00066288445; 0.0045775153878145
14.25; 0.00073177183; 0.0053224275340576
15.27; 0.00080347229; 0.0061403276572787
16.29; 0.00087834451; 0.0070344444636029
17.31; 0.00095642446; 0.0080080432880981
18.32; 0.001037105; 0.0090637714312509
19.34; 0.0011189767; 0.010202841401579
20.36; 0.0011999455; 0.011424334163234
21.38; 0.0012776504; 0.012724927144567
22.40; 0.001350082; 0.014099252315175
23.41; 0.0014162084; 0.015540891312506
24.43; 0.0014763838; 0.017043786346866
25.45; 0.0015323738; 0.018603676739558
26.47; 0.0015869605; 0.020219134027953
27.48; 0.0016432449; 0.021891886411922
28.50; 0.0017038728; 0.023626355370218
29.52; 0.0017704365; 0.025428583355259
30.54; 0.0018432268; 0.027304908718431
31.56; 0.0019213616; 0.02926077192929
32.57; 0.002003168; 0.031299910547563
33.59; 0.0020866047; 0.033423984128314
34.61; 0.0021695294; 0.035632471458402
35.63; 0.0022497318; 0.037922601388657
36.65; 0.0023248113; 0.040289159016716
37.66; 0.0023920998; 0.04272421339194
38.68; 0.0024488472; 0.045217034152271
39.70; 0.0024927768; 0.047754573338249
40.72; 0.0025229193; 0.050322796349638
41.74; 0.0025404391; 0.05290885374038
42.75; 0.0025490685; 0.055503695458354
43.77; 0.0025548363; 0.05810440859059
44.79; 0.0025650027; 0.060715470704303
45.81; 0.0025864199; 0.063348334588228
46.83; 0.0026238007; 0.066019250486489
47.84; 0.0026784746; 0.06874582206637
48.86; 0.0027480869; 0.071543255900611
49.88; 0.0028273802; 0.07442140697231
50.90; 0.0029098095; 0.077383467453723
51.92; 0.0029894245; 0.08042657263559
52.93; 0.0030623559; 0.083543918758782
53.95; 0.003127389; 0.086727465830374
54.97; 0.0031854751; 0.089970141980639
55.99; 0.0032384456; 0.093266739817772
57.01; 0.0032875188; 0.096613292115331
58.02; 0.003332265; 0.100005394063
59.04; 0.0033705073; 0.10343642504286
60.06; 0.003399247; 0.10689671178256
61.08; 0.003416264; 0.11037432111878
62.10; 0.0034217407; 0.11385750552888
63.11; 0.0034192014; 0.11733810499456
64.13; 0.0034152843; 0.12081471705926
65.15; 0.0034182828; 0.12429438149241
66.17; 0.0034358471; 0.12779192558379
67.19; 0.003472565; 0.13132684692544
68.20; 0.0035282159; 0.13491841845744
69.22; 0.003597292; 0.13858030646744
70.24; 0.003669985; 0.14231619278081
71.26; 0.003734378; 0.146117628396
72.27; 0.0037792242; 0.14996471558165
73.29; 0.0037965422; 0.15382943175757
74.31; 0.0037833505; 0.15768071929778
75.33; 0.0037421527; 0.16149006923044
76.35; 0.0036801596; 0.16523631285707
77.36; 0.0036075729; 0.16890866644288
78.38; 0.0035354615; 0.17250761368323
79.40; 0.0034737866; 0.17604377849108
80.42; 0.003430005; 0.17953537561191
81.44; 0.0034084527; 0.18300503334252
82.45; 0.003410475; 0.1864767496841
83.47; 0.0034350973; 0.18997353052974
84.49; 0.0034799449; 0.19351596424381
85.51; 0.0035421391; 0.19712170904444
86.53; 0.0036189807; 0.20080567526741
87.54; 0.0037083327; 0.20458059798405
88.56; 0.0038087121; 0.2084577025973
89.58; 0.0039191534; 0.21244723160607
90.60; 0.0040389289; 0.21655868698714
91.62; 0.004167206; 0.22080072283464
92.63; 0.0043026996; 0.22518068537431
93.65; 0.0044433679; 0.22970384216084
94.67; 0.0045861786; 0.23437237410974
95.69; 0.0047269724; 0.23918422805132
96.71; 0.0048604414; 0.24413194768952
97.72; 0.0049802441; 0.24920162125319
98.74; 0.00507928; 0.254372109064
99.76; 0.0051501554; 0.25961474500632
100.78; 0.0051858678; 0.26489373469638
101.80; 0.0051807146; 0.27016747861785
102.81; 0.0051313761; 0.27539099810039
103.83; 0.0050380392; 0.28051950463535
104.85; 0.0049053299; 0.28551291876792
105.87; 0.0047427597; 0.29034084351632
106.89; 0.0045643985; 0.2949872042292
107.90; 0.004387596; 0.2994535876058
108.92; 0.0042307887; 0.30376034797862
109.94; 0.0041106879; 0.30794485088498
110.96; 0.0040393766; 0.31205676197998
111.98; 0.004021961; 0.31615094472934
112.99; 0.0040553597; 0.32027912585706
114.01; 0.0041285831; 0.32448184528689
115.03; 0.0042245086; 0.32878221274154
116.05; 0.004322802; 0.3331826386081
117.07; 0.0044033853; 0.33766509478696
118.08; 0.0044497669; 0.3421947654504
119.10; 0.0044516436; 0.34672634657769
120.12; 0.0044063964; 0.35121186800317
121.14; 0.0043193445; 0.355608774296
122.15; 0.004202821; 0.35988706475724
123.17; 0.0040742537; 0.36403447917848
124.19; 0.0039534946; 0.3680589660709
125.21; 0.0038597013; 0.37198797548313
126.23; 0.0038081525; 0.3758645103813
127.24; 0.003807492; 0.37974037298238
128.26; 0.0038579678; 0.38366761776412
129.28; 0.0039511759; 0.38768974434339
130.30; 0.0040715829; 0.3918344400638
131.32; 0.0041996815; 0.39610953461165
132.33; 0.0043161464; 0.40050318544261
133.35; 0.0044059746; 0.40498827743012
134.37; 0.0044614813; 0.40952987284002
135.39; 0.0044832834; 0.41409366187734
136.41; 0.0044789777; 0.41865306788542
137.42; 0.0044599446; 0.42319309902356
138.44; 0.0044373145; 0.42771009366893
139.46; 0.0044183951; 0.43220782926224
140.48; 0.0044046709; 0.43669159413663
141.50; 0.0043919077; 0.44116236664783
142.51; 0.0043721579; 0.44561303475468
143.53; 0.0043368277; 0.45002773820114
144.55; 0.0042796877; 0.45438427560001
145.57; 0.0041988543; 0.45865852810557
146.59; 0.0040972541; 0.46282935596095
147.60; 0.00398169; 0.46688254456073
148.62; 0.0038610986; 0.47081297636229
149.64; 0.0037447501; 0.47462497034259
150.66; 0.0036409707; 0.47833132138859
151.68; 0.0035565854; 0.48195177189135
152.69; 0.0034968835; 0.4855114484066
153.71; 0.0034656975; 0.48903937892468
154.73; 0.003465234; 0.49256683765109
155.75; 0.0034955519; 0.49612515864581
156.77; 0.0035539007; 0.49974287616212
157.78; 0.0036343327; 0.5034424699762
158.80; 0.0037279772; 0.50723738986885
159.82; 0.0038241253; 0.51113018436495
160.84; 0.0039119332; 0.51511236355346
161.86; 0.0039822785; 0.51916615118937
162.87; 0.0040292243; 0.52326772770364
163.89; 0.0040507024; 0.5273911679563
164.91; 0.0040483282; 0.53151219134653
165.93; 0.0040265765; 0.53561107248925
166.94; 0.0039917159; 0.53967446703215
167.96; 0.0039508661; 0.54369627818515
168.98; 0.0039113394; 0.54767785290081
170.00; 0.0038801772; 0.55162770582413
171.02; 0.0038636399; 0.55556072456723
172.03; 0.0038664501; 0.55949660389683
173.05; 0.0038907984; 0.56345726881685
174.07; 0.0039354062; 0.56746334251014
175.09; 0.0039951154; 0.5715301975532
176.11; 0.0040614429; 0.57566457120651
177.12; 0.0041242442; 0.57986287383462
178.14; 0.0041741883; 0.58411201737159
179.16; 0.0042053381; 0.5883928701017
180.18; 0.0042169421; 0.59268553520547
181.20; 0.0042137023; 0.59697490233694
182.21; 0.0042042633; 0.6012546609521
183.23; 0.0041983046; 0.60552835390423
184.25; 0.0042031755; 0.60980700523073
185.27; 0.004221254; 0.6141040596541
186.29; 0.0042490255; 0.61842938426723
187.30; 0.0042783021; 0.62278451121039
188.32; 0.004299239; 0.62716095100265
189.34; 0.0043041317; 0.63154237129431
190.36; 0.0042906497; 0.63591006750627
191.38; 0.0042633153; 0.64024993850858
192.39; 0.0042326245; 0.64455856759115
193.41; 0.0042120305; 0.64884623289295
194.43; 0.0042137703; 0.65313566920385
195.45; 0.0042449369; 0.65745683180918
196.47; 0.0043051341; 0.66183927253205
197.48; 0.0043865102; 0.66630455061125
198.50; 0.0044761546; 0.6708610828194
199.52; 0.0045600325; 0.67550299912689
200.54; 0.0046271239; 0.68021321155725
201.56; 0.0046723902; 0.6849695031109
202.57; 0.0046976289; 0.68975148656951
203.59; 0.0047100272; 0.69454609105456
204.61; 0.0047190242; 0.69934985405406
205.63; 0.0047326518; 0.70416748931561
206.65; 0.0047546645; 0.70900753259203
207.66; 0.0047834384; 0.71387686644756
208.68; 0.0048129589; 0.71877625092697
209.70; 0.0048354644; 0.72369854503507
210.72; 0.0048447341; 0.7286302752583
211.74; 0.0048388107; 0.73355597573666
212.75; 0.0048211867; 0.73846373575814
213.77; 0.0048000609; 0.74334999067332
214.79; 0.0047859763; 0.74822190798374
215.81; 0.0047887176; 0.75309661588086
216.82; 0.0048145839; 0.75799765451061
217.84; 0.0048649655; 0.76294997947284
218.86; 0.0049366418; 0.76797526775365
219.88; 0.0050235514; 0.77308902629136
220.90; 0.0051192428; 0.77830019453973
221.91; 0.0052189772; 0.78361288813425
222.93; 0.0053206348; 0.78902906473044
223.95; 0.0054240882; 0.79455055245769
224.97; 0.0055293698; 0.80017921232818
225.99; 0.0056345013; 0.80591489146529
227.00; 0.0057340634; 0.81175192053914
228.02; 0.0058193527; 0.81767577043569
229.04; 0.005880368; 0.82366173130439
230.06; 0.0059091124; 0.82967695275385
231.08; 0.0059030709; 0.8356860241961
232.09; 0.0058674933; 0.84165887920023
233.11; 0.005815398; 0.8475787034069
234.13; 0.0057649462; 0.85344716987162
235.15; 0.0057347781; 0.85928492646618
236.17; 0.0057387016; 0.86512667701424
237.18; 0.0057814777; 0.87101197186972
238.20; 0.0058571808; 0.87697432920946
239.22; 0.0059507935; 0.88303198020674
240.24; 0.0060425957; 0.88918308187835
241.26; 0.0061139162; 0.89540678479258
242.27; 0.0061523112; 0.90166957210643
243.29; 0.0061544191; 0.9079345051467
244.31; 0.0061255746; 0.9141700757561
245.33; 0.0060764465; 0.92035563612915
246.35; 0.0060180661; 0.92648176769574
247.36; 0.0059572103; 0.93254595068558
248.38; 0.0058939638; 0.93854575154129
249.40; 0.0058224383; 0.9444727425279
250.42; 0.005734394; 0.95031010820678
251.44; 0.0056243504; 0.95603545418216
252.45; 0.0054941362; 0.96162824775258
253.47; 0.0053549736; 0.96707937984565
254.49; 0.00522607; 0.97239929357518
255.51; 0.0051299859; 0.97762139782355
256.53; 0.00508627; 0.98279900122096
257.54; 0.0051055394; 0.98799621999643
258.56; 0.0051860787; 0.99327542427554
259.58; 0.0053141724; 0.998685022453
260.60; 0.0054680869; 1.0042512989979
261.61; 0.0056243643; 1.0099766591656
262.63; 0.0057643268; 1.0158444950666
263.65; 0.0058786767; 1.0218287343087
264.67; 0.0059687897; 1.0279047046149
265.69; 0.0060444542; 1.0340576981626
266.70; 0.0061189939; 1.0402865699349
267.72; 0.0062035027; 1.0466014679944
268.74; 0.0063021064; 1.0530167404055
269.76; 0.006409719; 1.0595415577852
270.78; 0.0065128954; 1.0661714042156
271.79; 0.0065934166; 1.0728832177477
272.81; 0.0066334783; 1.0796358124182
273.83; 0.0066209881; 1.0863756925562
274.85; 0.0065535507; 1.0930469244067
275.87; 0.0064401432; 1.0996027122794
276.88; 0.0063000807; 1.1060159225424
277.90; 0.0061594996; 1.1122860273098
278.92; 0.0060461009; 1.1184406971114
279.94; 0.0059832501; 1.1245313874973
280.96; 0.0059846833; 1.1306235368965
281.97; 0.0060510085; 1.1367832024506
282.99; 0.0061688982; 1.143062874624
284.01; 0.0063133642; 1.1494896069343
285.03; 0.0064528315; 1.1560583109847
286.05; 0.0065560289; 1.1627320655471
287.06; 0.0065991586; 1.1694497242704
288.08; 0.0065715946; 1.1761393239827
289.10; 0.0064786035; 1.182734262788
290.12; 0.0063402793; 1.1891883935501
291.14; 0.0061868677; 1.1954863578837
292.15; 0.0060516505; 1.2016466769207
293.17; 0.0059632521; 1.2077170102629
294.19; 0.0059393876; 1.2137630505536
295.21; 0.005983632; 1.2198541297156
296.23; 0.0060858887; 1.2260493017741
297.24; 0.0062261544; 1.2323872582713
298.26; 0.0063802707; 1.238882098571
299.28; 0.0065258943; 1.2455251773217
300.30; 0.0066470296; 1.2522915666337
301.32; 0.0067360822; 1.2591486076534
302.33; 0.0067932608; 1.2660638539868
303.35; 0.0068239956; 1.2730103870139
304.37; 0.0068355657; 1.2799686979206
305.39; 0.0068342063; 1.2869256249839
306.41; 0.006823612; 1.2938717675781
307.42; 0.0068051268; 1.3007990929712
308.44; 0.0067792433; 1.3077000701604
309.46; 0.0067475655; 1.3145688006237
310.48; 0.0067142459; 1.3214036132382
311.49; 0.0066861465; 1.328209821884
312.51; 0.0066714667; 1.3350010870624
313.53; 0.0066771866; 1.3417981749155
314.55; 0.0067061633; 1.3486247597464
315.57; 0.0067549346; 1.3555009916733
316.58; 0.0068131553; 1.3624364897946
317.60; 0.0068651283; 1.3694248941792
318.62; 0.0068932488; 1.3764419240013
319.64; 0.0068825413; 1.3834480540933
320.66; 0.0068250476; 1.3903956580479
321.67; 0.0067227659; 1.3972391436564
322.69; 0.0065881896; 1.4039456364238
323.71; 0.006442151; 1.4105034681399
324.73; 0.0063094529; 1.4169262188932
325.75; 0.0062134217; 1.4232512140177
326.76; 0.0061708283; 1.4295328509868
327.78; 0.0061885027; 1.4358324797399
328.80; 0.0062624474; 1.4422073809545
329.82; 0.0063795179; 1.4487014548821
330.84; 0.0065210196; 1.4553395714295
331.85; 0.0066671023; 1.4621263938403
332.87; 0.0068007453; 1.469049259044
333.89; 0.0069104053; 1.4760837534815
334.91; 0.0069909145; 1.4832002027217
335.93; 0.0070427632; 1.490369431774
336.94; 0.0070703074; 1.497566699562
337.96; 0.007079587; 1.5047734136712
338.98; 0.0070763665; 1.5119768493964
340.00; 0.0070647774; 1.519168487943
341.02; 0.0070467115; 1.5263417361642
342.03; 0.00702194; 1.5334897680506
343.05; 0.0069888612; 1.5406041271219
344.07; 0.0069457411; 1.5476745918055
345.09; 0.006892253; 1.5546906079708
346.11; 0.006831006; 1.5616442773457
347.12; 0.0067686183; 1.5685344386961
348.14; 0.0067158346; 1.575370868542
349.16; 0.0066863078; 1.5821772413199
350.18; 0.0066940025; 1.5889914470523
351.20; 0.0067496692; 1.5958623190513
352.21; 0.0068572956; 1.602842750073
353.23; 0.0070116729; 1.6099803305401
354.25; 0.0071980419; 1.6173076265467
355.27; 0.0073942147; 1.624834618051
356.28; 0.0075747624; 1.6325453993525
357.30; 0.0077161107; 1.6404000670963
358.32; 0.0078010149; 1.6483411636246
359.34; 0.0078210682; 1.6563026735205
360.36; 0.0077766069; 1.6642189237853
361.37; 0.0076743546; 1.6720310855642
362.39; 0.0075239998; 1.6796901926556
363.41; 0.0073352737; 1.6871571847566
364.43; 0.0071167979; 1.6944017779466
365.45; 0.0068771187; 1.7014023880072
366.46; 0.0066272699; 1.7081486628117
367.48; 0.0063833747; 1.7146466627899
368.50; 0.0061675796; 1.7209249926328
369.52; 0.0060061535; 1.7270389977555
370.54; 0.0059246922; 1.7330700787507
371.55; 0.0059416225; 1.7391183940707
372.57; 0.0060620965; 1.7452893467399
373.59; 0.0062745105; 1.7516765276487
374.61; 0.0065511919; 1.7583453583046
375.63; 0.0068534894; 1.7653219147507
376.64; 0.0071400455; 1.7725901729187
377.66; 0.0073759585; 1.7800985803498
378.68; 0.0075402267; 1.7877742057362
379.70; 0.0076294168; 1.7955406228556
380.72; 0.0076566981; 1.8033348111178
381.73; 0.007646802; 1.8111189255337
382.75; 0.0076286271; 1.8188845387608
383.77; 0.0076277472; 1.8266492562614
384.79; 0.0076608778; 1.834447699285
385.81; 0.0077335561; 1.8423201256519
386.82; 0.0078411986; 1.8503021274863
387.84; 0.0079727086; 1.8584180008184
388.86; 0.0081151937; 1.8666789177874
389.88; 0.0082582642; 1.875085474431
390.90; 0.0083967557; 1.8836330094097
391.91; 0.0085313677; 1.8923175736015
392.93; 0.0086674011; 1.9011406139233
393.95; 0.0088122861; 1.9101111409243
394.97; 0.0089728181; 1.919245082595
395.99; 0.0091529407; 1.9285623812902
397.00; 0.0093526184; 1.9380829432302
398.02; 0.0095679525; 1.9478227060291
399.04; 0.0097923366; 1.9577908821519
400.06; 0.010018211; 1.9679889885325
401.07; 0.010238898; 1.9784117450436
402.09; 0.010450069; 1.9890494641619
403.11; 0.010650547; 1.9998912617214
404.13; 0.010842379; 2.0109283356958
405.15; 0.011030268; 2.0221566727658
406.16; 0.011220634; 2.0335787943947
407.18; 0.011420589; 2.0452044608365
408.20; 0.01163709; 2.0570505166027
409.22; 0.011876416; 2.0691401955439
410.24; 0.01214389; 2.0815021517476
411.25; 0.012443648; 2.0941692488646
412.27; 0.012778108; 2.1071768113685
413.29; 0.013146891; 2.1205597786954
414.31; 0.013545194; 2.1343482012034
415.33; 0.013962006; 2.1485609203337
416.34; 0.014378965; 2.1631980862577
417.36; 0.014770857; 2.178234181288
418.38; 0.015108559; 2.1936140422752
419.40; 0.015364598; 2.2092545404591
420.42; 0.015520493; 2.2250537324763
421.43; 0.015574023; 2.2409074153938
422.45; 0.015543981; 2.2567305178058
423.47; 0.015470132; 2.2724784441175
424.49; 0.015407202; 2.2881623109838
425.51; 0.015413606; 2.3038526964276
426.52; 0.015537499; 2.3196691995495
427.54; 0.01580416; 2.3357571527418
428.56; 0.016208752; 2.3522569632879
429.58; 0.016717133; 2.3692742830766
430.60; 0.017274878; 2.3868593634187
431.61; 0.017821877; 2.4050012649077
432.63; 0.018307844; 2.4236378600703
433.65; 0.018703731; 2.4426774516005
434.67; 0.019005519; 2.462024249538
435.69; 0.019229756; 2.4815993116427
436.70; 0.019403394; 2.5013511296095
437.72; 0.019552577; 2.5212548096307
438.74; 0.019695302; 2.5413037775864
439.76; 0.019840955; 2.5615010138578
440.78; 0.019996526; 2.5818566148597
441.79; 0.020176071; 2.6023949840635
442.81; 0.020408157; 2.6231696076133
443.83; 0.020736519; 2.6442784890936
444.85; 0.021211772; 2.6658711572732
445.87; 0.021875956; 2.6881399366891
446.88; 0.022745129; 2.7112934961572
447.90; 0.023796844; 2.7355176566231
448.92; 0.024968329; 2.7609343382009
449.94; 0.02616769; 2.7875719171834
450.95; 0.027295898; 2.8153579634623
451.97; 0.028273248; 2.844138910133
452.99; 0.02906204; 2.8737228124747
454.01; 0.029678159; 2.9039338974955
455.03; 0.030187714; 2.9346636872135
456.04; 0.030689657; 2.9659044332442
457.06; 0.031289744; 2.9977560425054
458.08; 0.032073709; 3.0304056942737
459.10; 0.033087411; 3.0640872510495
460.12; 0.034329152; 3.0990328463488
461.13; 0.035755329; 3.1354302284328
462.15; 0.037296587; 3.1733965441352
463.17; 0.038878896; 3.2129735830344
464.19; 0.040443318; 3.254143135242
465.21; 0.041959474; 3.2968560690331
466.22; 0.043430357; 3.3410662986702
467.24; 0.044888838; 3.3867611986995
468.26; 0.046388262; 3.4339824474997
469.28; 0.047990231; 3.4828344320488
470.30; 0.049752155; 3.5334799793137
471.31; 0.051716021; 3.5861246568133
472.33; 0.053898859; 3.6409913699195
473.35; 0.05628518; 3.6982872545283
474.37; 0.058822289; 3.7581658064283
475.39; 0.061420475; 3.8206891993483
476.40; 0.063960601; 3.8857983311587
477.42; 0.066310889; 3.9532999544999
478.44; 0.068352266; 4.0228796121377
479.46; 0.070008103; 4.0941448396439
480.48; 0.071270744; 4.166695381548
481.49; 0.072215714; 4.2402078623334
482.51; 0.072996041; 4.3145146816584
483.53; 0.073814193; 4.3896543447696
484.55; 0.074876367; 4.4658752549341
485.57; 0.076340859; 4.5435869551287
486.58; 0.078276203; 4.6232687522345
487.60; 0.0806434; 4.7053602531969
488.62; 0.083309675; 4.7901659069128
489.64; 0.086090614; 4.877802437457
490.66; 0.088806967; 4.9682040976184
491.67; 0.091336049; 5.0611802543258
492.69; 0.09363856; 5.1565002674865
493.71; 0.095750028; 5.2539696642962
494.73; 0.097739493; 5.3534642500387
495.74; 0.099651344; 5.4549050176952
496.76; 0.10145422; 5.5581810331015
497.78; 0.10301975; 5.6630506920853
498.80; 0.10414365; 5.7690644308876
499.82; 0.10460543; 5.8755482400564
500.83; 0.10424729; 5.9816674786343
501.85; 0.10304342; 6.0865612381181
502.87; 0.10113243; 6.1895096878009
503.89; 0.098797476; 6.2900812555378
504.91; 0.096397437; 6.3882096871242
505.92; 0.094270043; 6.4841725229768
506.94; 0.092638867; 6.578474892164
507.96; 0.091555163; 6.6716740977342
508.98; 0.090893578; 6.7641998375476
510.00; 0.090402076; 6.8562252501473
511.01; 0.089788037; 6.9476255969583
512.03; 0.088811066; 7.0380314294925
513.05; 0.087352589; 7.12695259585
514.07; 0.085442186; 7.2139290540176
515.09; 0.083236722; 7.2986604451003
516.10; 0.080964275; 7.3810785836854
517.12; 0.078854879; 7.4613494482495
518.14; 0.077081275; 7.5398148597327
519.16; 0.075725815; 7.6169004720438
520.18; 0.074778156; 7.6930214085407
521.19; 0.074157324; 7.7685103644011
522.21; 0.073745303; 7.8435799008819
523.23; 0.07341901; 7.9183172847302
524.25; 0.073072253; 7.9927016851355
525.27; 0.072625984; 8.0666318029135
526.28; 0.072030359; 8.1399555997579
527.30; 0.071263821; 8.212499094298
528.32; 0.070332499; 8.2840945429064
529.34; 0.069269522; 8.3546079276241
530.36; 0.068131005; 8.4239623504111
531.37; 0.066985282; 8.4921504765676
532.39; 0.065894955; 8.5592286970214
