#Wavenumber (cm^-1);  Spectrum at 400.00 K (cm*km*mol^-1);  Integral (km*mol^-1)
0.00; 0.0017982841; 0.0018305755657207
1.02; 0.0018816135; 0.0037459768816625
2.04; 0.0021228726; 0.0059069695458442
3.05; 0.0024976807; 0.0084495007110767
4.07; 0.0029709195; 0.011473768612047
5.09; 0.0035034071; 0.015040085906977
6.11; 0.004058596; 0.019171561456856
7.13; 0.0046077257; 0.023862027408696
8.14; 0.0051324815; 0.029086672103628
9.16; 0.0056250278; 0.034812707718915
10.18; 0.0060860134; 0.04100800677118
11.20; 0.006521548; 0.047646661179973
12.22; 0.0069401706; 0.054711455326597
13.23; 0.0073505363; 0.062193984116993
14.25; 0.0077601141; 0.070093445376516
15.27; 0.0081747907; 0.078415029582505
16.29; 0.0085990307; 0.087168471746019
17.31; 0.0090361681; 0.09636690097792
18.32; 0.0094884813; 0.10602576551258
19.34; 0.0099568487; 0.11616140785419
20.36; 0.010439978; 0.12678885477544
21.38; 0.010933401; 0.13791858525076
22.40; 0.01142863; 0.14955243762407
23.41; 0.011912999; 0.16167935664608
24.43; 0.012370725; 0.1742722213537
25.45; 0.012785507; 0.18728731582704
26.47; 0.013144515; 0.2006678651471
27.48; 0.013443045; 0.21435230503408
28.50; 0.013688528; 0.2282866357627
29.52; 0.013902362; 0.2424386399644
30.54; 0.014118281; 0.25681044094822
31.56; 0.014376807; 0.27144541025747
32.57; 0.014716514; 0.2864261867926
33.59; 0.015164068; 0.30186255372691
34.61; 0.015725752; 0.31787069016101
35.63; 0.016383194; 0.33454807472296
36.65; 0.017095118; 0.35195016765618
37.66; 0.017805352; 0.37007524725247
38.68; 0.018455555; 0.38886220542063
39.70; 0.018999682; 0.4082030617523
40.72; 0.019416525; 0.42796824650382
41.74; 0.019717043; 0.44803934556274
42.75; 0.019944411; 0.46834189563631
43.77; 0.020166471; 0.48887049325698
44.79; 0.020462048; 0.50969997497666
45.81; 0.020903988; 0.53097933257308
46.83; 0.02154249; 0.55290865814132
47.84; 0.022392245; 0.57570299726258
48.86; 0.023426172; 0.59954982994953
49.88; 0.024577316; 0.62456847736185
50.90; 0.025748892; 0.65077973803139
51.92; 0.026830879; 0.6780924149679
52.93; 0.027720114; 0.7063102944208
53.95; 0.028339878; 0.73515906741512
54.97; 0.02865481; 0.76432842697859
55.99; 0.028677708; 0.79352109648092
57.01; 0.028466522; 0.82249878706423
58.02; 0.028112069; 0.85111566028196
59.04; 0.027719397; 0.87933281041439
60.06; 0.027387299; 0.90721189892371
61.08; 0.027190951; 0.9348911131941
62.10; 0.027171587; 0.96255061603418
63.11; 0.027334957; 0.99037642302928
64.13; 0.027657674; 1.0185307415653
65.15; 0.028098398; 1.0471336985377
66.17; 0.028609864; 1.0762573053451
67.19; 0.029148265; 1.105928980839
68.20; 0.029678273; 1.1361401824139
69.22; 0.030174073; 1.1668560864687
70.24; 0.030618364; 1.1980242602159
71.26; 0.031001681; 1.2295826333281
72.27; 0.031323353; 1.2614684555122
73.29; 0.03159372; 1.2936294992034
74.31; 0.031835517; 1.3260366821
75.33; 0.032081867; 1.3586946380318
76.35; 0.03236924; 1.3916451274551
77.36; 0.032726065; 1.4249588490959
78.38; 0.033160223; 1.4587145248595
79.40; 0.03365036; 1.4929691390483
80.42; 0.034145671; 1.5277279590297
81.44; 0.034576387; 1.5629252291902
82.45; 0.034873269; 1.5984247119079
83.47; 0.034990506; 1.6340435368413
84.49; 0.034924136; 1.6695947999804
85.51; 0.034718671; 1.7049369089004
86.53; 0.034458143; 1.740013811916
87.54; 0.034243178; 1.7748718893465
88.56; 0.034161038; 1.8096463523493
89.58; 0.034258749; 1.8445202802397
90.60; 0.034528978; 1.879669289579
91.62; 0.034914283; 1.9152105228933
92.63; 0.035328864; 1.9511737816881
93.65; 0.035690511; 1.9875051813907
94.67; 0.035951393; 2.0241021478684
95.69; 0.036116361; 2.0608670444427
96.71; 0.036241673; 2.097759504093
97.72; 0.036414071; 2.1348274573276
98.74; 0.036717335; 2.1722041202916
99.76; 0.037198251; 2.2100703344703
100.78; 0.037844378; 2.2485942780325
101.80; 0.038582015; 2.2878691041816
102.81; 0.039295641; 2.3278703711894
103.83; 0.039862529; 2.3684487053482
104.85; 0.040190872; 2.4093612791529
105.87; 0.040248608; 2.450332625351
106.89; 0.040073419; 2.4911256362818
107.90; 0.039760976; 2.5316005942391
108.92; 0.039435819; 2.5717445566681
109.94; 0.039214798; 2.6116635284871
110.96; 0.039174874; 2.6515418594104
111.98; 0.039334839; 2.6915830286235
112.99; 0.039655212; 2.7319503227811
114.01; 0.04005432; 2.7727238917256
115.03; 0.04043365; 2.8138836028911
116.05; 0.040703463; 2.8553179715678
117.07; 0.040800971; 2.8968515997687
118.08; 0.040697146; 2.9382795385129
119.10; 0.040392767; 2.9793976326978
120.12; 0.039907979; 3.0200222330117
121.14; 0.039271023; 3.0599984394722
122.15; 0.038510822; 3.0992007945188
123.17; 0.037655355; 3.1375323205404
124.19; 0.036734627; 3.1749265852336
125.21; 0.035784859; 3.2113540280146
126.23; 0.034850065; 3.2468298904432
127.24; 0.03397857; 3.2814186086152
128.26; 0.033214547; 3.3152295842366
129.28; 0.032587122; 3.348401868738
130.30; 0.032101114; 3.3810794172473
131.32; 0.031733293; 3.4133825398442
132.33; 0.031436369; 3.445383406896
133.35; 0.031150269; 3.4770930364555
134.37; 0.030817754; 3.5084641799348
135.39; 0.030399866; 3.539409932095
136.41; 0.029886659; 3.5698332613052
137.42; 0.029300098; 3.5996594962666
138.44; 0.02868843; 3.6288630802815
139.46; 0.028113822; 3.6574817375134
140.48; 0.027636877; 3.6856148858221
141.50; 0.027302297; 3.7134074459124
142.51; 0.027129225; 3.7410238265567
143.53; 0.027108253; 3.7686188588109
144.55; 0.027205107; 3.7963124840685
145.57; 0.02736944; 3.8241733929624
146.59; 0.027546279; 3.8522143161744
147.60; 0.027687622; 3.8803991204321
148.62; 0.027762217; 3.9086598593169
149.64; 0.027762273; 3.9369206548737
150.66; 0.027706392; 3.965124566485
151.68; 0.027638266; 3.9932591289928
152.69; 0.027620745; 4.0213758555447
153.71; 0.02772517; 4.049598882012
154.73; 0.028016593; 4.0781185650521
155.75; 0.028536771; 4.1071677664308
156.77; 0.029288265; 4.1369819561813
157.78; 0.030224004; 4.1677486885391
158.80; 0.031246504; 4.1995562809672
159.82; 0.032219243; 4.2323540795405
160.84; 0.032989648; 4.2659361179878
161.86; 0.03341947; 4.2999556966104
162.87; 0.033415379; 4.3339711109235
163.89; 0.032951565; 4.3675143824271
164.91; 0.032077621; 4.4001680163215
165.93; 0.030908901; 4.431631944153
166.94; 0.029601652; 4.4617651489655
167.96; 0.028319831; 4.4905935146273
168.98; 0.027203003; 4.5182849976304
170.00; 0.026344079; 4.5451021330851
171.02; 0.025782084; 4.5713471821833
172.03; 0.025509973; 4.5973152334642
173.05; 0.025492557; 4.6232655560848
174.07; 0.025686764; 4.649413573101
175.09; 0.026056608; 4.675938076056
176.11; 0.026578271; 4.7029936090343
177.12; 0.027235169; 4.7307178353277
178.14; 0.02800704; 4.7592277933726
179.16; 0.028859211; 4.7886052245538
180.18; 0.029737623; 4.818876841119
181.20; 0.030572339; 4.8499981629118
182.21; 0.031288436; 4.8818484409622
183.23; 0.031820137; 4.9142399669251
184.25; 0.032122989; 4.9469397832895
185.27; 0.032180181; 4.9796978186474
186.29; 0.032001914; 5.0122743859581
187.30; 0.031619797; 5.0444619752799
188.32; 0.031079996; 5.0761000698099
189.34; 0.030438584; 5.1070852349302
190.36; 0.029760459; 5.1373800981206
191.38; 0.029120284; 5.1670232905344
192.39; 0.028601819; 5.1961387076621
193.41; 0.02829179; 5.2249385286446
194.43; 0.028266508; 5.2537126137271
195.45; 0.028573053; 5.2827987483276
196.47; 0.029210479; 5.3125337552957
197.48; 0.030118484; 5.3431930725317
198.50; 0.031180168; 5.3749331382711
199.52; 0.032241792; 5.4077538908626
200.54; 0.033146909; 5.4414960141091
201.56; 0.03377677; 5.4758793084803
202.57; 0.034085501; 5.5105768779699
203.59; 0.034118733; 5.5453082756936
204.61; 0.034008244; 5.5799272004766
205.63; 0.033941887; 5.6144785770477
206.65; 0.034115437; 5.6492066198326
207.66; 0.034678782; 5.6845081231971
208.68; 0.035691143; 5.7208401668375
209.70; 0.037097958; 5.7586042877314
210.72; 0.038736262; 5.7980361305463
211.74; 0.040367587; 5.8391285926604
212.75; 0.041729934; 5.8816078646564
213.77; 0.042595373; 5.9249681166048
214.79; 0.042818867; 5.9685558754474
215.81; 0.04236684; 6.0116834903616
216.82; 0.041320008; 6.0537454757156
217.84; 0.039851886; 6.0943129762423
218.86; 0.038190261; 6.1331890136081
219.88; 0.03657212; 6.170417853518
220.90; 0.035202515; 6.2062524948638
221.91; 0.034225081; 6.241092150316
222.93; 0.033707755; 6.2754051898867
223.95; 0.033643124; 6.3096524382054
224.97; 0.033960004; 6.3442222565463
225.99; 0.034541789; 6.3793843067076
227.00; 0.035247571; 6.4152648132893
228.02; 0.035933192; 6.4518432519555
229.04; 0.036470431; 6.4889685770315
230.06; 0.036763015; 6.5263917399876
231.08; 0.036757964; 6.5638097613417
232.09; 0.036450617; 6.6009149160852
233.11; 0.035881963; 6.6374412061582
234.13; 0.035128105; 6.6732001010753
235.15; 0.034283516; 6.7080992413606
236.17; 0.033441719; 6.7421414686797
237.18; 0.032678086; 6.7754063501295
238.20; 0.032039149; 6.8080208213908
239.22; 0.031540911; 6.8401281076766
240.24; 0.031175765; 6.8718636916396
241.26; 0.030924828; 6.9033438316493
242.27; 0.03077076; 6.934667137484
243.29; 0.030706285; 6.9659248103243
244.31; 0.030735425; 6.9972121467728
245.33; 0.030867425; 7.0286338530334
246.35; 0.031106116; 7.0602985367392
247.36; 0.031439199; 7.0923022846036
248.38; 0.031831864; 7.1247057481317
249.40; 0.03222755; 7.1575120033722
250.42; 0.032556081; 7.1906526892507
251.44; 0.032746901; 7.2239876218769
252.45; 0.032743572; 7.2573191656879
253.47; 0.03251546; 7.290418500757
254.49; 0.032063596; 7.323057858261
255.51; 0.031419544; 7.3550415979679
256.53; 0.030638034; 7.3862297944549
257.54; 0.029785669; 7.4165503206577
258.56; 0.028928686; 7.4459984744112
259.58; 0.028122671; 7.474626139704
260.60; 0.027406346; 7.5025246175269
261.61; 0.026800301; 7.5298061679656
262.63; 0.026310217; 7.5565888333257
263.65; 0.025932912; 7.582987418555
264.67; 0.025662803; 7.609111044633
265.69; 0.025496295; 7.6350651731146
266.70; 0.025432399; 7.6609542582744
267.72; 0.025469322; 7.6868809292975
268.74; 0.025598533; 7.7129391314978
269.76; 0.025799204; 7.7392016078468
270.78; 0.026036326; 7.7657054641867
271.79; 0.026264839; 7.7924419373088
272.81; 0.026439909; 7.8193566241042
273.83; 0.026530774; 7.8463638076744
274.85; 0.026533442; 7.8733737069651
275.87; 0.026476953; 7.9003261027268
276.88; 0.026419484; 7.9272199975008
277.90; 0.026433905; 7.9541285721527
278.92; 0.026586402; 7.9811923818244
279.94; 0.026914896; 8.0085905840759
280.96; 0.027414846; 8.0364977142772
281.97; 0.028038041; 8.065039230462
282.99; 0.028705694; 8.0942603877647
284.01; 0.029332046; 8.1241191446393
285.03; 0.029850716; 8.1545058853384
286.05; 0.030234719; 8.1852835241254
287.06; 0.03050314; 8.2163344045378
288.08; 0.030712107; 8.2475980038248
289.10; 0.030933269; 8.2790867372766
290.12; 0.031227456; 8.3108749397102
291.14; 0.031622728; 8.343065512591
292.15; 0.032104317; 8.3757463217999
293.17; 0.032619448; 8.4089515123116
294.19; 0.033094729; 8.4426405182626
295.21; 0.033459442; 8.476700786407
296.23; 0.033666422; 8.5109717509555
297.24; 0.033703581; 8.5452805421577
298.26; 0.03359295; 8.579476716127
299.28; 0.033378734; 8.6134548271574
300.30; 0.033109639; 8.6471590104571
301.32; 0.032822277; 8.6805706721762
302.33; 0.032531437; 8.7136862714497
303.35; 0.032229981; 8.746495001174
304.37; 0.03189741; 8.7789651883008
305.39; 0.03151307; 8.8110441333501
306.41; 0.031068611; 8.8426706384811
307.42; 0.030575042; 8.8737947115561
308.44; 0.030061995; 8.9043965250115
309.46; 0.029569825; 8.934497331015
310.48; 0.029137702; 8.964158254421
311.49; 0.028792133; 8.993467403219
312.51; 0.028540006; 9.0225198976982
313.53; 0.028368485; 9.0513977913715
314.55; 0.028251583; 9.0801566833986
315.57; 0.02816087; 9.1088232341319
316.58; 0.028076333; 9.1374037294093
317.60; 0.027993315; 9.1658997165002
318.62; 0.027922876; 9.1943239990072
319.64; 0.027885201; 9.2227099298294
320.66; 0.027898305; 9.2511092004061
321.67; 0.027966142; 9.2795775260337
322.69; 0.028070806; 9.308152394857
323.71; 0.02817243; 9.3368307127632
324.73; 0.028217908; 9.3655553253069
325.75; 0.028156459; 9.3942173860682
326.76; 0.027957371; 9.4226767829544
327.78; 0.027623929; 9.450796750295
328.80; 0.027198251; 9.4784833961668
329.82; 0.026754281; 9.5057180999346
330.84; 0.026379958; 9.5325717589661
331.85; 0.026153238; 9.5591946262883
332.87; 0.026118989; 9.5857826304852
333.89; 0.026273935; 9.6125283627973
334.91; 0.026564583; 9.6395699622463
335.93; 0.026899224; 9.6669522113662
336.94; 0.02717073; 9.6946108424489
337.96; 0.027283601; 9.7223843707201
338.98; 0.027177459; 9.7500498510982
340.00; 0.02684049; 9.7773723116739
341.02; 0.026309535; 9.8041542827912
342.03; 0.025657683; 9.8302726972744
343.05; 0.024973817; 9.8556949654602
344.07; 0.024340511; 9.8804725554269
345.09; 0.023816518; 9.9047167431926
346.11; 0.02342797; 9.9285654058858
347.12; 0.023169312; 9.952150765395
348.14; 0.023011969; 9.975575956699
349.16; 0.02291682; 9.9989042909836
350.18; 0.022846165; 10.022160700774
351.20; 0.022771949; 10.045341562365
352.21; 0.022678933; 10.068427737981
353.23; 0.02256338; 10.091396285283
354.25; 0.022429122; 10.114228163686
355.27; 0.022283123; 10.13691142115
356.28; 0.02213205; 10.159440892666
357.30; 0.02198037; 10.18181596087
358.32; 0.021829598; 10.204037549883
359.34; 0.021677952; 10.226104769882
360.36; 0.021519909; 10.248011108269
361.37; 0.021345735; 10.269740145154
362.39; 0.021141635; 10.291261416963
363.41; 0.020891291; 10.312527849488
364.43; 0.020579181; 10.333476567803
365.45; 0.020195242; 10.354034453152
366.46; 0.019739614; 10.374128527943
367.48; 0.019225758; 10.393699520134
368.50; 0.018680518; 10.412715481713
369.52; 0.018140562; 10.431181790756
370.54; 0.017645945; 10.449144601794
371.55; 0.017232617; 10.466686661919
372.57; 0.016926137; 10.483916739297
373.59; 0.016738533; 10.500955843617
374.61; 0.016669041; 10.51792420761
375.63; 0.016708109; 10.534932341217
376.64; 0.016842856; 10.552077642048
377.66; 0.01706178; 10.569445797908
378.68; 0.017356988; 10.587114463095
379.70; 0.017723404; 10.605156123275
380.72; 0.018155722; 10.623637864607
381.73; 0.018644859; 10.642617526321
382.75; 0.019175768; 10.662137631028
383.77; 0.019727814; 10.682219693917
384.79; 0.020277663; 10.702861480176
385.81; 0.020803498; 10.724038543208
386.82; 0.021288696; 10.745709516917
387.84; 0.021723423; 10.767823024466
388.86; 0.022103536; 10.790323470135
389.88; 0.022427512; 10.813153709611
390.90; 0.022693138; 10.836254345046
391.91; 0.022895885; 10.859561367939
392.93; 0.023030209; 10.88300512729
393.95; 0.023093642; 10.906513458053
394.97; 0.023092065; 10.930020184129
395.99; 0.02304372; 10.953477696602
397.00; 0.022979602; 10.976869939394
398.02; 0.022939127; 11.000220981297
399.04; 0.022961762; 11.023595064315
400.06; 0.023077066; 11.0470865212
401.07; 0.023296587; 11.070801441906
402.09; 0.02361076; 11.094836176574
403.11; 0.023992443; 11.119259447826
404.13; 0.024406549; 11.144104261967
405.15; 0.024823004; 11.169373009197
406.16; 0.025228938; 11.195054979163
407.18; 0.025636027; 11.221151348592
408.20; 0.026080242; 11.247699909688
409.22; 0.026613533; 11.274791337957
410.24; 0.027289452; 11.302570822138
411.25; 0.028146533; 11.331222778021
412.27; 0.029193955; 11.360940964105
413.29; 0.030403366; 11.391890278852
414.31; 0.031709107; 11.424168781677
415.33; 0.033016875; 11.45777853544
416.34; 0.03421885; 11.492611848365
417.36; 0.035211901; 11.528456044262
418.38; 0.035914959; 11.565015922541
419.40; 0.036282055; 11.60194948892
420.42; 0.036308568; 11.638910043989
421.43; 0.036029689; 11.675586713059
422.45; 0.035511701; 11.711736092023
423.47; 0.034838043; 11.747199716595
424.49; 0.034093235; 11.781905158879
425.51; 0.03334815; 11.815852136422
426.52; 0.032649914; 11.849088340471
427.54; 0.032018649; 11.881681943608
428.56; 0.031451532; 11.913698246431
429.58; 0.03093265; 11.945186349141
430.60; 0.030445295; 11.976178345471
431.61; 0.029982494; 12.006699230297
432.63; 0.029551959; 12.036781849744
433.65; 0.029173504; 12.066479218385
434.67; 0.028869694; 12.095867321078
435.69; 0.028653276; 12.1250351199
436.70; 0.028516638; 12.15406382693
437.72; 0.028428369; 12.183002679826
438.74; 0.028339802; 12.211851375158
439.76; 0.028200727; 12.240558498772
440.78; 0.027979633; 12.269040558034
441.79; 0.027681282; 12.29721890883
442.81; 0.027354389; 12.325064496474
443.83; 0.027084867; 12.352635722591
444.85; 0.026974871; 12.380094977619
445.87; 0.027113034; 12.407694875963
446.88; 0.027544999; 12.435734496787
447.90; 0.028254104; 12.464495955608
448.92; 0.029159356; 12.494178921559
449.94; 0.030132551; 12.524852558255
450.95; 0.031030165; 12.556439927447
451.97; 0.031730761; 12.58874047269
452.99; 0.032166786; 12.621484872909
454.01; 0.032341447; 12.654407070085
455.03; 0.032326164; 12.687313710328
456.04; 0.03224028; 12.720132924635
457.06; 0.032219982; 12.752931475861
458.08; 0.032386153; 12.785899182022
459.10; 0.032820255; 12.819308784855
460.12; 0.033553821; 12.853465127012
461.13; 0.03457223; 12.888658165759
462.15; 0.035828859; 12.925130398495
463.17; 0.037263157; 12.963062683844
464.19; 0.038816189; 13.002575889091
465.21; 0.040439543; 13.043741599233
466.22; 0.042096884; 13.086594411012
467.24; 0.043760519; 13.131140731278
468.26; 0.045406831; 13.177362926171
469.28; 0.047013955; 13.225221103702
470.30; 0.048563032; 13.274656174872
471.31; 0.050041873; 13.325596642318
472.33; 0.051448103; 13.377968590823
473.35; 0.052788759; 13.431705269198
474.37; 0.054074963; 13.48675124763
475.39; 0.055312986; 13.543057480137
476.40; 0.05649553; 13.600567492021
477.42; 0.057598063; 13.659199834765
478.44; 0.058583823; 13.718835638787
479.46; 0.059417874; 13.779320470519
480.48; 0.060086414; 13.840485847551
481.49; 0.060614225; 13.902188513414
482.51; 0.061072225; 13.964357402804
483.53; 0.061569456; 14.027032452418
484.55; 0.062229002; 14.090378891114
485.57; 0.063153576; 14.154666506192
486.58; 0.064391536; 14.220214311579
487.60; 0.065915529; 14.28731347563
488.62; 0.067622888; 14.356150657124
489.64; 0.069359931; 14.426756073786
490.66; 0.070963709; 14.498994067154
491.67; 0.072307783; 14.57260026974
492.69; 0.073336143; 14.647253298944
493.71; 0.074072745; 14.722656157284
494.73; 0.074602523; 14.798598305972
495.74; 0.075030228; 14.874975839884
496.76; 0.075432089; 14.95176245169
497.78; 0.075818606; 15.028942521022
498.80; 0.076123232; 15.10643268624
499.82; 0.07622232; 15.184023718478
500.83; 0.075979881; 15.261367958743
501.85; 0.075300992; 15.33802111877
502.87; 0.074173862; 15.413526909859
503.89; 0.072684337; 15.487516428332
504.91; 0.07099655; 15.559787853078
505.92; 0.069305973; 15.630338343389
506.94; 0.067781283; 15.699336764648
507.96; 0.06651558; 15.767046754514
508.98; 0.065503892; 15.833726889604
510.00; 0.064654158; 15.899542032578
511.01; 0.063826759; 15.964514919466
512.03; 0.062887777; 16.028531963049
513.05; 0.061757096; 16.091398021456
514.07; 0.060435406; 16.1529186566
515.09; 0.059002614; 16.212980771879
516.10; 0.057590571; 16.271605488001
517.12; 0.05634144; 16.3289586426
518.14; 0.055366555; 16.385319406601
519.16; 0.054718494; 16.441020472432
520.18; 0.054382862; 16.496379879139
521.19; 0.054288799; 16.551643533521
522.21; 0.054331472; 16.606950627401
523.23; 0.054397638; 16.662325075365
524.25; 0.054386856; 16.71768854765
525.27; 0.05422469; 16.772886942154
526.28; 0.053868132; 16.827722376235
527.30; 0.053305776; 16.881985356047
528.32; 0.052555347; 16.935484431634
529.34; 0.051659663; 16.98807173965
530.36; 0.050680367; 17.039662166034
531.37; 0.049688184; 17.090242593219
532.39; 0.048749582; 17.139867563745
533.41; 0.047911981; 17.188639893318
534.43; 0.047191841; 17.236679151488
535.45; 0.046570489; 17.284085899364
536.46; 0.04600084; 17.330912769649
537.48; 0.045424466; 17.377152915505
538.50; 0.044794221; 17.422751499127
539.52; 0.044094775; 17.467638076964
540.54; 0.043353212; 17.51176977609
541.55; 0.042634852; 17.555170215396
542.57; 0.042024555; 17.597949398659
543.59; 0.041599145; 17.640295533247
544.61; 0.041400066; 17.682439013604
545.62; 0.041415622; 17.724598329559
546.64; 0.041579006; 17.766923963896
547.66; 0.041782946; 17.809457199511
548.68; 0.041906289; 17.852115992978
549.70; 0.041844195; 17.894711577973
