#Wavenumber (cm^-1);  Spectrum at 400.00 K (cm*km*mol^-1);  Integral (km*mol^-1)
0.00; 0.0034864621; 0.0035490679943923
1.02; 0.0036484601; 0.0072630429401657
2.04; 0.0041172341; 0.011454209632311
3.05; 0.004844676; 0.016385880715506
4.07; 0.0057614554; 0.022250793712273
5.09; 0.006790173; 0.029162896865633
6.11; 0.0078586013; 0.03716261385788
7.13; 0.0089099244; 0.046232532431053
8.14; 0.0099080817; 0.056318532047571
9.16; 0.010837911; 0.067351058185769
10.18; 0.011701219; 0.079262393956409
11.20; 0.012510718; 0.091997765259388
12.22; 0.013283881; 0.10552018303404
13.23; 0.014038188; 0.11981045284617
14.25; 0.014788456; 0.13486446321897
15.27; 0.015546109; 0.15068973150773
16.29; 0.016319717; 0.16730249902843
17.31; 0.017115912; 0.18472575866774
18.32; 0.017939858; 0.20298775959391
19.34; 0.018794721; 0.2221199743068
20.36; 0.01968001; 0.24215337538764
21.38; 0.020589152; 0.26311224335695
22.40; 0.021507178; 0.28500562293296
23.41; 0.02240979; 0.30781782197966
24.43; 0.023265067; 0.33150065636052
25.45; 0.02403864; 0.35597095491452
26.47; 0.02470207; 0.38111659626624
27.48; 0.025242845; 0.40681272365623
28.50; 0.025673183; 0.43294691615517
29.52; 0.026034287; 0.45944869657353
30.54; 0.026393335; 0.486315973178
31.56; 0.026832253; 0.51363004858563
32.57; 0.027429861; 0.54155246303762
33.59; 0.028241531; 0.5703011233255
34.61; 0.029281974; 0.6001089088636
35.63; 0.030516656; 0.63117354805726
36.65; 0.031865426; 0.66361117629565
37.66; 0.033218603; 0.69742628111298
38.68; 0.034462262; 0.73250737668899
39.70; 0.035506587; 0.76865155016633
40.72; 0.036310131; 0.80561369665799
41.74; 0.036893647; 0.8431698373851
42.75; 0.037339754; 0.88118009581425
43.77; 0.037778106; 0.91963657792337
44.79; 0.038359093; 0.95868447924902
45.81; 0.039221556; 0.99861033055792
46.83; 0.04046118; 1.0397980657961
47.84; 0.042106015; 1.0826601724588
48.86; 0.044104258; 1.1275564039984
49.88; 0.046327252; 1.1747155477514
50.90; 0.048587974; 1.224176008609
51.92; 0.050672333; 1.2757582573002
52.93; 0.052377871; 1.3290766700828
53.95; 0.053552367; 1.3835906689999
54.97; 0.054124144; 1.4386867119765
55.99; 0.054116971; 1.493775453144
57.01; 0.053645524; 1.5483842820131
58.02; 0.052891873; 1.6022259265009
59.04; 0.052068287; 1.6552291957859
60.06; 0.051375351; 1.7075270860648
61.08; 0.050965637; 1.7594079052694
62.10; 0.050921433; 1.8112437265395
63.11; 0.051250713; 1.863414741064
64.13; 0.051900063; 1.9162467660713
65.15; 0.052778514; 1.9699730155829
66.17; 0.053783881; 2.0247226851063
67.19; 0.054823964; 2.0805311147526
68.20; 0.055828331; 2.1373619463703
69.22; 0.056750854; 2.1951318664699
70.24; 0.057566744; 2.2537323276509
71.26; 0.058268983; 2.3130476382602
72.27; 0.058867483; 2.3729721954427
73.29; 0.059390898; 2.4334295666492
74.31; 0.059887684; 2.4943926449022
75.33; 0.060421581; 2.5558992068332
76.35; 0.06105832; 2.6180539420531
77.36; 0.061844556; 2.681009031749
78.38; 0.062784984; 2.7449214360357
79.40; 0.063826933; 2.8098944996055
80.42; 0.064861338; 2.8759205424474
81.44; 0.065744322; 2.9428454250378
82.45; 0.066336062; 3.0103726741318
83.47; 0.066545914; 3.0781135431529
84.49; 0.066368327; 3.145673635717
85.51; 0.065895203; 3.2127521087564
86.53; 0.065297306; 3.2792219485646
87.54; 0.064778023; 3.345163180709
88.56; 0.064513365; 3.4108350021014
89.58; 0.064598344; 3.4765933288734
90.60; 0.065019027; 3.5427798921708
91.62; 0.06566136; 3.6096203229519
92.63; 0.066355028; 3.677166878002
93.65; 0.066937653; 3.7453065206205
94.67; 0.067316607; 3.813831921627
95.69; 0.067505749; 3.882549860834
96.71; 0.067622905; 3.9513870604965
97.72; 0.067847898; 4.020453293402
98.74; 0.068355391; 4.0900361315192
99.76; 0.069246346; 4.1605259239343
100.78; 0.070502888; 4.2322948213686
101.80; 0.071983315; 4.3055707297453
102.81; 0.073459906; 4.3803497442784
103.83; 0.074687018; 4.456377906061
104.85; 0.075476415; 4.5332096395379
105.87; 0.075754456; 4.6103244071857
106.89; 0.075582439; 4.6872640683344
107.90; 0.075134356; 4.7637476008723
108.92; 0.07464085; 4.8397287653575
109.94; 0.074318907; 4.9153822060892
110.96; 0.074310371; 4.9910269568408
111.98; 0.074647718; 5.0670151125176
112.99; 0.075255063; 5.1436215197051
114.01; 0.075980056; 5.2209659381643
115.03; 0.076642792; 5.2989849930406
116.05; 0.077084124; 5.3774533045274
117.07; 0.077198557; 5.4560381047504
118.08; 0.076944526; 5.5343643115753
119.10; 0.076333891; 5.6120689188179
120.12; 0.075409561; 5.6888325980202
121.14; 0.074222701; 5.7643881046483
122.15; 0.072818823; 5.8385145242803
123.17; 0.071236455; 5.9110301619023
124.19; 0.069515759; 5.9817942043962
125.21; 0.067710018; 6.0507200805461
126.23; 0.065891978; 6.117795270505
127.24; 0.064149648; 6.183096844248
128.26; 0.062571126; 6.246791550709
129.28; 0.061223069; 6.3091139931327
130.30; 0.060130644; 6.3703243944309
131.32; 0.059266904; 6.4306555450767
132.33; 0.058556591; 6.4902636283495
133.35; 0.057894563; 6.5491977954809
134.37; 0.057174026; 6.6073984870295
135.39; 0.056316449; 6.6647262023126
136.41; 0.05529434; 6.7210134547249
137.42; 0.054140251; 6.7761258935097
138.44; 0.052939546; 6.830016066894
139.46; 0.051809248; 6.8827556457646
140.48; 0.050869083; 6.9345381775075
141.50; 0.050212686; 6.985652525177
142.51; 0.049886293; 7.0364346183588
143.53; 0.049879679; 7.0872099794206
144.55; 0.050130527; 7.138240692537
145.57; 0.050540026; 7.1896882578193
146.59; 0.050995304; 7.2415992763879
147.60; 0.051393554; 7.2939156963034
148.62; 0.051663335; 7.3465067422714
149.64; 0.051779795; 7.3992163394047
150.66; 0.051771814; 7.4519178115814
151.68; 0.051719947; 7.5045664860943
152.69; 0.051744607; 7.5572402626827
153.71; 0.051984642; 7.6101583850993
154.73; 0.052567953; 7.6636702924531
155.75; 0.05357799; 7.7182103742157
156.77; 0.055022629; 7.7742210362006
157.78; 0.056813676; 7.832054907102
158.80; 0.05876503; 7.8918751720655
159.82; 0.06061436; 7.9535779747161
160.84; 0.062067363; 8.016759872422
161.86; 0.062856662; 8.0807452420315
162.87; 0.062801534; 8.1446744941433
163.89; 0.061852428; 8.2076375968979
164.91; 0.060106914; 8.2688238412964
165.93; 0.057791226; 8.3276528158168
166.94; 0.055211589; 8.3838558308989
167.96; 0.052688795; 8.4374907510694
168.98; 0.050494666; 8.48889214236
170.00; 0.04880798; 8.538576560346
171.02; 0.047700528; 8.5871336397993
172.03; 0.047153495; 8.6351338630315
173.05; 0.047094315; 8.6830738433528
174.07; 0.047438121; 8.7313638036919
175.09; 0.048118101; 8.7803459545588
176.11; 0.049095099; 8.830322646862
177.12; 0.050346093; 8.8815727968208
178.14; 0.051839891; 8.9343435693735
179.16; 0.053513083; 8.9888175790059
180.18; 0.055258303; 9.0450681470325
181.20; 0.056930976; 9.1030214234866
182.21; 0.058372609; 9.1624422209724
183.23; 0.059441969; 9.2229515799461
184.25; 0.060042802; 9.2840725613483
185.27; 0.060139107; 9.3452915776406
186.29; 0.059754802; 9.4061193876489
187.30; 0.058961293; 9.4661394393495
188.32; 0.057860753; 9.5250391886172
189.34; 0.056573037; 9.5826280985661
190.36; 0.055230269; 9.6388501287349
191.38; 0.053977252; 9.6937966425601
192.39; 0.052971013; 9.7477188477329
193.41; 0.052371549; 9.8010308243962
194.43; 0.052319245; 9.8542895582504
195.45; 0.052901168; 9.908140664846
196.47; 0.054115824; 9.9632282380593
197.48; 0.055850458; 10.020081594452
198.50; 0.057884182; 10.079005193723
199.52; 0.059923551; 10.140004782598
200.54; 0.061666695; 10.202778816661
201.56; 0.06288115; 10.26678911385
202.57; 0.063473374; 10.33140226937
203.59; 0.063527438; 10.396070460333
204.61; 0.063297464; 10.460504546899
205.63; 0.063151123; 10.52478966478
206.65; 0.06347621; 10.589405707073
207.66; 0.064574125; 10.655139379947
208.68; 0.066569327; 10.722904082748
209.70; 0.069360453; 10.793510030428
210.72; 0.072627789; 10.867441985834
211.74; 0.075896364; 10.944701209584
212.75; 0.078638681; 11.024751993555
213.77; 0.080390686; 11.106586242536
214.79; 0.080851758; 11.188889842911
215.81; 0.079944962; 11.270270364842
216.82; 0.077825433; 11.349493296921
217.84; 0.074838807; 11.425675973012
218.86; 0.07144388; 11.498402759463
219.88; 0.068120688; 11.567746680745
220.90; 0.065285787; 11.634204795188
221.91; 0.063231185; 11.698571412498
222.93; 0.062094874; 11.761781315043
223.95; 0.06186216; 11.824754323953
224.97; 0.062390638; 11.888265300764
225.99; 0.063449076; 11.95285372195
227.00; 0.064761079; 12.01877770604
228.02; 0.066047031; 12.086010733475
229.04; 0.067060494; 12.154275422759
230.06; 0.067616918; 12.223106527221
231.08; 0.067612857; 12.291933498487
232.09; 0.06703374; 12.36017095297
233.11; 0.065948528; 12.42730370891
234.13; 0.064491264; 12.492953032279
235.15; 0.062832255; 12.556913556255
236.17; 0.061144737; 12.619156260345
237.18; 0.059574694; 12.679800728389
238.20; 0.058221117; 12.739067313572
239.22; 0.057131028; 12.797224235146
240.24; 0.056308935; 12.854544301401
241.26; 0.055735739; 12.911280878506
242.27; 0.055389209; 12.967664702861
243.29; 0.05525815; 13.023915115502
244.31; 0.055345276; 13.08025421779
245.33; 0.055658403; 13.136912069938
246.35; 0.056194166; 13.194115305783
247.36; 0.056921188; 13.252058618522
248.38; 0.057769763; 13.310865744722
249.40; 0.058632662; 13.370551264216
250.42; 0.059377769; 13.430995270295
251.44; 0.059869453; 13.491939789572
252.45; 0.059993009; 13.553010083623
253.47; 0.059675946; 13.613757621668
254.49; 0.058901123; 13.673716422947
255.51; 0.057709102; 13.732461798112
256.53; 0.056189798; 13.789660587689
257.54; 0.0544658; 13.845104421319
258.56; 0.052671293; 13.898721524547
259.58; 0.050931169; 13.950567256955
260.60; 0.049344606; 14.000797936056
261.61; 0.047976239; 14.049635676766
262.63; 0.046856107; 14.097333171585
263.65; 0.045987147; 14.144146102801
264.67; 0.045356816; 14.190317384651
265.69; 0.044948137; 14.236072648067
266.70; 0.044745805; 14.281621946614
267.72; 0.044735142; 14.327160390601
268.74; 0.04489496; 14.37286152259
269.76; 0.045188689; 14.418861657908
270.78; 0.045559757; 14.465239524158
271.79; 0.045936262; 14.51200065687
272.81; 0.04624634; 14.55907743579
273.83; 0.046440561; 14.606351922793
274.85; 0.046513334; 14.653700489524
275.87; 0.046513763; 14.701049493174
276.88; 0.046538888; 14.748424072459
277.90; 0.04670831; 14.795971116996
278.92; 0.047126703; 14.843944066537
279.94; 0.047846541; 14.892649780655
280.96; 0.048845009; 14.942371891658
281.97; 0.050025074; 14.993295258473
282.99; 0.051242489; 15.045457900905
284.01; 0.052350727; 15.098748682344
285.03; 0.0532486; 15.152953459692
286.05; 0.053913408; 15.207834982704
287.06; 0.054407122; 15.263219084805
288.08; 0.054852619; 15.319056683667
289.10; 0.055387935; 15.375439211765
290.12; 0.056114632; 15.43256148587
291.14; 0.057058589; 15.490644667298
292.15; 0.058156983; 15.549845966679
293.17; 0.059275644; 15.61018601436
294.19; 0.06025007; 15.671517985972
295.21; 0.060935252; 15.733547443098
296.23; 0.061246955; 15.795894200137
297.24; 0.061181008; 15.858173826044
298.26; 0.06080563; 15.920071333683
299.28; 0.060231574; 15.981384476993
300.30; 0.059572247; 16.04202645428
301.32; 0.058908472; 16.101992736699
302.33; 0.058269614; 16.161308688913
303.35; 0.057635966; 16.219979615334
304.37; 0.056959255; 16.277961678681
305.39; 0.056191933; 16.335162641716
306.41; 0.05531361; 16.391469509384
307.42; 0.054344957; 16.446790330141
308.44; 0.053344746; 16.501092979863
309.46; 0.052392085; 16.554425861406
310.48; 0.051561158; 16.606912895604
311.49; 0.050898119; 16.658724984554
312.51; 0.050408545; 16.710038708334
313.53; 0.050059784; 16.760997407827
314.55; 0.049797002; 16.811688607051
315.57; 0.049566806; 16.86214547659
316.58; 0.04933951; 16.912370969024
317.60; 0.049121502; 16.962374538821
318.62; 0.048952503; 17.012206074013
319.64; 0.04888786; 17.061971805565
320.66; 0.048971562; 17.111822742764
321.67; 0.049209518; 17.161915908411
322.69; 0.049553422; 17.21235915329
323.71; 0.049902709; 17.263157957386
324.73; 0.050126363; 17.314184431721
325.75; 0.050099497; 17.365183558119
326.76; 0.049743913; 17.415820714922
327.78; 0.049059355; 17.46576102085
328.80; 0.048134055; 17.514759411379
329.82; 0.047129045; 17.562734744987
330.84; 0.046238897; 17.609803946503
331.85; 0.045639373; 17.656262858736
332.87; 0.045437234; 17.702516001926
333.89; 0.045637465; 17.748972972113
334.91; 0.046138252; 17.795939721771
335.93; 0.046755684; 17.843534990958
336.94; 0.047271153; 17.891654985336
337.96; 0.047487615; 17.939995327769
338.98; 0.047278551; 17.9881228528
340.00; 0.046616203; 18.035576135405
341.02; 0.045572358; 18.081966829418
342.03; 0.044293427; 18.127055626498
343.05; 0.042958773; 18.170785803798
344.07; 0.041735281; 18.213270519048
345.09; 0.040740783; 18.254742878414
346.11; 0.040024934; 18.295486534426
347.12; 0.039570005; 18.335767092094
348.14; 0.039308103; 18.375781044856
349.16; 0.039147333; 18.415631340647
350.18; 0.038998327; 18.455329954496
351.20; 0.038794229; 18.494820805679
352.21; 0.038500571; 18.534012725889
353.23; 0.038115087; 18.572812240026
354.25; 0.037660202; 18.611148700825
355.27; 0.037172031; 18.648988224249
356.28; 0.036689337; 18.68633638598
357.30; 0.036244629; 18.723231854643
358.32; 0.035858182; 18.759733936141
359.34; 0.035534836; 18.795906866244
360.36; 0.03526321; 18.831803292753
361.37; 0.035017115; 18.867449204744
362.39; 0.03475927; 18.902832641271
363.41; 0.034447308; 18.937898514219
364.43; 0.034041564; 18.97255135766
365.45; 0.033513366; 19.006666518296
366.46; 0.032851957; 19.040108393073
367.48; 0.032068142; 19.072752377478
368.50; 0.031193457; 19.104505970793
369.52; 0.03027497; 19.135324583756
370.54; 0.029367199; 19.165219124836
371.55; 0.028523611; 19.194254929768
372.57; 0.027790178; 19.222544131855
373.59; 0.027202556; 19.250235159585
374.61; 0.026786889; 19.277503056915
375.63; 0.026562728; 19.304542767683
376.64; 0.026545667; 19.331565111178
377.66; 0.026747602; 19.358793015466
378.68; 0.02717375; 19.386454720455
379.70; 0.027817391; 19.414771623694
380.72; 0.028654745; 19.443940918097
381.73; 0.029642916; 19.474116127109
382.75; 0.03072291; 19.505390723295
383.77; 0.03182788; 19.537790131573
384.79; 0.032894449; 19.571275261067
385.81; 0.033873439; 19.605756960764
386.82; 0.034736193; 19.641116906348
387.84; 0.035474138; 19.677228048113
388.86; 0.036091878; 19.713968022484
389.88; 0.03659676; 19.75122194479
390.90; 0.036989521; 19.788875680683
391.91; 0.037260402; 19.826805162277
392.93; 0.037393018; 19.864869640657
393.95; 0.037374997; 19.902915775182
394.97; 0.037211313; 19.940795285662
395.99; 0.036934499; 19.978393011914
397.00; 0.036606585; 20.015656935557
398.02; 0.036310302; 20.052619256566
399.04; 0.036131188; 20.089399246478
400.06; 0.03613592; 20.126184053867
401.07; 0.036354277; 20.163191138768
402.09; 0.036771451; 20.200622888986
403.11; 0.037334338; 20.23862763393
404.13; 0.03797072; 20.277280188239
405.15; 0.03861574; 20.316589345628
406.16; 0.039237241; 20.356531163931
407.18; 0.039851466; 20.397098236347
408.20; 0.040523394; 20.438349302774
409.22; 0.04135065; 20.48044248037
410.24; 0.042435013; 20.523639492528
411.25; 0.043849417; 20.568276307177
412.27; 0.045609801; 20.614705116841
413.29; 0.047659842; 20.663220779009
414.31; 0.049873021; 20.71398936215
415.33; 0.052071744; 20.766996150547
416.34; 0.054058735; 20.822025610472
417.36; 0.055652945; 20.878677907235
418.38; 0.056721359; 20.936417802806
419.40; 0.057199512; 20.994644437381
420.42; 0.057096642; 21.052766355502
421.43; 0.056485356; 21.110266010723
422.45; 0.05547942; 21.166741666241
423.47; 0.054205955; 21.221920989073
424.49; 0.052779268; 21.275648006774
425.51; 0.051282694; 21.327851576417
426.52; 0.04976233; 21.378507481392
427.54; 0.048233138; 21.427606734475
428.56; 0.046694312; 21.475139529573
429.58; 0.045148167; 21.521098415205
430.60; 0.043615712; 21.565497327524
431.61; 0.042143111; 21.608397195686
432.63; 0.040796075; 21.649925839417
433.65; 0.039643277; 21.690280985169
434.67; 0.038733869; 21.729710392618
435.69; 0.038076796; 21.768470928157
436.70; 0.037629882; 21.80677652425
437.72; 0.037304161; 21.844750550022
438.74; 0.036984301; 21.88239897273
439.76; 0.0365605; 21.919615983687
440.78; 0.03596274; 21.956224501207
441.79; 0.035186494; 21.992042833597
442.81; 0.034300621; 22.026959385335
443.83; 0.033433216; 22.060992956089
444.85; 0.032737971; 22.094318797965
445.87; 0.032350111; 22.127249815236
446.88; 0.03234487; 22.160175497416
447.90; 0.032711364; 22.193474254593
448.92; 0.033350383; 22.227423504918
449.94; 0.034097412; 22.262133199327
450.95; 0.034764432; 22.297521891431
451.97; 0.035188273; 22.333342035246
452.99; 0.035271533; 22.369246933344
454.01; 0.035004735; 22.404880242674
455.03; 0.034464615; 22.439963733442
456.04; 0.033790904; 22.474361416026
457.06; 0.03315022; 22.508106909218
458.08; 0.032698597; 22.54139266977
459.10; 0.032553098; 22.574530318661
460.12; 0.032778491; 22.607897407674
461.13; 0.033389132; 22.641886103085
462.15; 0.034361132; 22.676864252855
463.17; 0.035647417; 22.713151784654
464.19; 0.03718906; 22.751008642941
465.21; 0.038919613; 22.790627129432
466.22; 0.040763412; 22.832122523355
467.24; 0.042632201; 22.875520263855
468.26; 0.044425401; 22.920743404842
469.28; 0.046037679; 22.967607775356
470.30; 0.047373909; 23.01583237043
471.31; 0.048367725; 23.065068627822
472.33; 0.048997346; 23.114945811727
473.35; 0.049292337; 23.165123283868
474.37; 0.049327636; 23.215336688831
475.39; 0.049205496; 23.265425760925
476.40; 0.049030459; 23.315336652884
477.42; 0.048885237; 23.365099715031
478.44; 0.04881538; 23.414791665436
479.46; 0.048827645; 23.464496101394
480.48; 0.048902085; 23.514276313553
481.49; 0.049012737; 23.564169164494
482.51; 0.049148409; 23.614200123949
483.53; 0.04932472; 23.664410560067
484.55; 0.049581637; 23.714882527293
485.57; 0.049966293; 23.765746057255
486.58; 0.050506869; 23.817159870923
487.60; 0.051187658; 23.869266698063
488.62; 0.051936101; 23.922135407336
489.64; 0.052629247; 23.975709710115
490.66; 0.053120451; 24.02978403669
491.67; 0.053279516; 24.084020285154
492.69; 0.053033727; 24.138006330402
493.71; 0.052395463; 24.191342650271
494.73; 0.051465553; 24.243732361904
495.74; 0.050409111; 24.295046662072
496.76; 0.049409961; 24.345343870279
497.78; 0.048617463; 24.394834349958
498.80; 0.048102817; 24.443800941593
499.82; 0.047839214; 24.492499196899
500.83; 0.047712476; 24.541068438852
501.85; 0.047558559; 24.589480999422
502.87; 0.047215295; 24.637544131917
503.89; 0.046571197; 24.684951601127
504.91; 0.045595663; 24.731366019032
505.92; 0.044341904; 24.776504163801
506.94; 0.042923699; 24.820198637132
507.96; 0.041475996; 24.862419411295
508.98; 0.040114206; 24.90325394166
510.00; 0.03890624; 24.942858815008
511.01; 0.037865482; 24.981404241974
512.03; 0.036964489; 25.019032496605
513.05; 0.036161602; 25.055843447062
514.07; 0.035428626; 25.091908259182
515.09; 0.034768507; 25.127301098658
516.10; 0.034216867; 25.162132392316
517.12; 0.033828; 25.19656783695
518.14; 0.033651836; 25.23082395347
519.16; 0.033711173; 25.265140472821
520.18; 0.033987567; 25.299738349736
521.19; 0.034420273; 25.33477670264
522.21; 0.034917641; 25.37032135392
523.23; 0.035376266; 25.406332866
524.25; 0.035701458; 25.442675410164
525.27; 0.035823396; 25.479142081395
526.28; 0.035705906; 25.515489152711
527.30; 0.035347731; 25.551471617796
528.32; 0.034778196; 25.586874320361
529.34; 0.034049804; 25.621535551676
530.36; 0.033229729; 25.655361981657
531.37; 0.032391086; 25.68833470987
532.39; 0.031604209; 25.720506430469
533.41; 0.030928158; 25.751989960216
534.43; 0.030403363; 25.782939271623
535.45; 0.030046883; 25.813525701851
536.46; 0.029851799; 25.843913544576
537.48; 0.029791379; 25.874239882574
538.50; 0.029827181; 25.904602665438
539.52; 0.029918838; 25.93505875171
540.54; 0.030032683; 25.965630726835
541.55; 0.03014689; 25.996318959705
542.57; 0.030252338; 26.027114534153
543.59; 0.030350097; 26.058009623493
544.61; 0.030447566; 26.08900393226
545.62; 0.030555219; 26.120107826385
546.64; 0.030684787; 26.151343615417
547.66; 0.030848204; 26.182745756126
548.68; 0.031055699; 26.214359118083
549.70; 0.031311828; 26.246233207362
550.71; 0.031609882; 26.27841070286
551.73; 0.0319273; 26.310911316899
