#Wavenumber (cm^-1); Spectrum (K*cm*km*mol^-1); Integral (K*km*mol^-1)
0.00; 15.966015; 16.252714194403
1.02; 16.864289; 33.419832584247
2.04; 19.473209; 53.242719471096
3.05; 23.555561; 77.221263868214
4.07; 28.778467; 106.51650193579
5.09; 34.788509; 141.92970253409
6.11; 41.285365; 183.95642250259
7.13; 48.074032; 232.89371260556
8.14; 55.082412; 288.96523064747
9.16; 62.341588; 352.42627690369
10.18; 69.937123; 423.61924994968
11.20; 77.947976; 502.96692638186
12.22; 86.392784; 590.91105264931
13.23; 95.200374; 687.82092550525
14.25; 104.21356; 793.90583728191
15.27; 113.22485; 909.16384589695
16.29; 122.03269; 1033.3878583977
17.31; 130.50078; 1166.2320214531
18.32; 138.60145; 1307.3223206157
19.34; 146.4291; 1456.3808297111
20.36; 154.1782; 1613.3275838096
21.38; 162.09107; 1778.3293032923
22.40; 170.38979; 1951.7787531661
23.41; 179.21137; 2134.2081938318
24.43; 188.56517; 2326.1593984574
25.45; 198.32472; 2528.045405397
26.47; 208.25663; 2740.0416664004
27.48; 218.07803; 2962.0356879052
28.50; 227.52582; 3193.6471569363
29.52; 236.41762; 3434.3100872082
30.54; 244.68712; 3683.3910126974
31.56; 252.38505; 3940.3080995811
32.57; 259.64742; 4204.6179714982
33.59; 266.64312; 4476.0491568448
34.61; 273.51844; 4754.4791301898
35.63; 280.35634; 5039.8697875884
36.65; 287.16165; 5332.1879591925
37.66; 293.8746; 5631.3396249458
38.68; 300.40486; 5937.1388048079
39.70; 306.67236; 6249.3180385687
40.72; 312.64034; 6567.5724118022
41.74; 318.33; 6891.6186152134
42.75; 323.81453; 7221.2478370986
43.77; 329.19728; 7556.3564607707
44.79; 334.58412; 7896.9486579678
45.81; 340.06048; 8243.1155518593
46.83; 345.67971; 8595.0025788192
47.84; 351.46418; 8952.7779508009
48.86; 357.41531; 9316.6113133397
49.88; 363.52637; 9686.6654677568
50.90; 369.79284; 10063.098624121
51.92; 376.21799; 10446.072306381
52.93; 382.81456; 10835.761013668
53.95; 389.60538; 11232.36247959
54.97; 396.6249; 11636.109511607
55.99; 403.92154; 12047.284214206
57.01; 411.55831; 12466.232813087
58.02; 419.60825; 12893.375900794
59.04; 428.14308; 13329.207083309
60.06; 437.21635; 13774.274459515
61.08; 446.84571; 14229.144109216
62.10; 457.00048; 14694.350873629
63.11; 467.59876; 15170.346233942
64.13; 478.51477; 15657.453618918
65.15; 489.5924; 16155.837550601
66.17; 500.65884; 16665.486648546
67.19; 511.53307; 17186.205242345
68.20; 522.02833; 17717.607558389
69.22; 531.95358; 18259.113351008
70.24; 541.12222; 18809.952415533
71.26; 549.37544; 19369.192907883
72.27; 556.6213; 19935.809370104
73.29; 562.88052; 20508.797445976
74.31; 568.32163; 21087.324345837
75.33; 573.26448; 21670.882850645
76.35; 578.13649; 22259.40085206
77.36; 583.38022; 22853.256745104
78.38; 589.32885; 23453.16808803
79.40; 596.08299; 24059.954845695
80.42; 603.42977; 24674.22030931
81.44; 610.83989; 25296.02896153
82.45; 617.55916; 25924.677538529
83.47; 622.78377; 26558.644542962
84.49; 625.88074; 27195.764123392
85.51; 626.59575; 27833.611553299
86.53; 625.18769; 28470.025640037
87.54; 622.444; 29103.646770514
88.56; 619.56094; 29734.333069622
89.58; 617.90936; 30363.338136531
90.60; 618.73939; 30993.188131534
91.62; 622.89642; 31627.26980545
92.63; 630.62078; 32269.21454218
93.65; 641.4829; 32922.216449183
94.67; 654.47164; 33588.440340017
95.69; 668.21387; 34268.653227848
96.71; 681.27022; 34962.156917681
97.72; 692.43403; 35667.024881735
98.74; 700.96197; 36380.573914697
99.76; 706.68528; 37099.949032539
100.78; 709.9831; 37822.681190547
101.80; 711.63457; 38547.094471371
102.81; 712.59491; 39272.485335139
103.83; 713.75489; 39999.057008313
104.85; 715.74076; 40727.650221002
105.87; 718.79535; 41459.352872198
106.89; 722.75643; 42195.087724574
107.90; 727.12407; 42935.268654575
108.92; 731.19027; 43679.588799149
109.94; 734.19569; 44426.968325344
110.96; 735.48039; 45175.655628224
111.98; 734.60377; 45923.450565235
112.99; 731.41986; 46668.004425612
114.01; 726.10437; 47407.147346025
115.03; 719.13566; 48139.196414917
116.05; 711.23557; 48863.203536594
117.07; 703.27754; 49579.109721886
118.08; 696.17142; 50287.78219084
119.10; 690.73804; 50990.923709074
120.12; 687.5897; 51690.860351108
121.14; 687.03544; 52390.232781004
122.15; 689.02784; 53091.633384812
123.17; 693.16201; 53797.242398015
124.19; 698.72742; 54508.516763617
125.21; 704.80218; 55225.974970814
126.23; 710.37146; 55949.102468009
127.24; 714.44958; 56676.381313664
128.26; 716.18933; 57405.431145845
129.28; 714.97102; 58133.240791298
130.30; 710.47238; 58856.471013778
131.32; 702.72463; 59571.814364755
132.33; 692.15696; 60276.400282068
133.35; 679.62149; 60968.22563618
134.37; 666.37902; 61646.570719539
135.39; 654.01853; 62312.333358282
136.41; 644.28869; 62968.191438154
137.42; 638.83886; 63618.501832354
138.44; 638.89909; 64268.8735351
139.46; 644.96217; 64925.417197082
140.48; 656.55432; 65593.761161109
141.50; 672.18032; 66278.011720119
142.51; 689.4994; 66979.892356149
143.53; 705.73141; 67698.296478869
144.55; 718.22482; 68429.418356983
145.57; 725.05872; 69167.496841843
146.59; 725.52247; 69906.047409584
147.60; 720.33322; 70639.315541381
148.62; 711.5123; 71363.60436045
149.64; 701.93327; 72078.14213962
150.66; 694.64802; 72785.263849271
151.68; 692.16486; 73489.857811738
152.69; 695.86949; 74198.222927601
153.71; 705.73979; 74916.635578
154.73; 720.41969; 75649.991738172
155.75; 737.61326; 76400.850212552
156.77; 754.67075; 77169.072470469
157.78; 769.19259; 77952.077331753
158.80; 779.48764; 78745.562109402
159.82; 784.78234; 79544.436666659
160.84; 785.16478; 80343.700526553
161.86; 781.33055; 81139.06131257
162.87; 774.24848; 81927.212854592
163.89; 764.86855; 82705.816032977
164.91; 753.95625; 83473.310959662
165.93; 742.07419; 84228.710467144
166.94; 729.67056; 84971.483605741
167.96; 717.19674; 85701.558942649
168.98; 705.17612; 86419.39780153
170.00; 694.17767; 87126.040709844
171.02; 684.69792; 87823.033648742
172.03; 676.99956; 88512.189989739
173.05; 670.97801; 89195.216647269
174.07; 666.1201; 89873.298164888
175.09; 661.58559; 90546.763743151
176.11; 656.39691; 91214.947477216
177.12; 649.68344; 91876.297180636
178.14; 640.90675; 92528.712594119
179.16; 630.00054; 93170.025956096
180.18; 617.38692; 93798.499202797
181.20; 603.87033; 94413.213140506
182.21; 590.44552; 95014.261197743
183.23; 578.07714; 95602.718780075
184.25; 567.50939; 96180.418850165
185.27; 559.14822; 96749.607611053
186.29; 553.03305; 97312.571394321
187.30; 548.88928; 97871.316998397
188.32; 546.23485; 98427.36050958
189.34; 544.50723; 98981.64537784
190.36; 543.18041; 99534.579591807
191.38; 541.85106; 100086.1605877
192.39; 540.28427; 100636.14665882
193.41; 538.4183; 101184.23325242
194.43; 536.33444; 101730.19856558
195.45; 534.20172; 102273.99286786
196.47; 532.20922; 102815.75888666
197.48; 530.50088; 103355.78589521
198.50; 529.12917; 103894.41655732
199.52; 528.0415; 104431.9400218
200.54; 527.10738; 104968.51258938
201.56; 526.18283; 105504.14400275
202.57; 525.19628; 106038.77114798
203.59; 524.22973; 106572.4143963
204.61; 523.56649; 107105.38248885
205.63; 523.68388; 107638.47008163
206.65; 525.1863; 108173.087076
207.66; 528.69396; 108711.2747118
208.68; 534.71984; 109255.59643238
209.70; 543.57358; 109808.93087593
210.72; 555.32296; 110374.22568193
211.74; 569.82409; 110954.28201579
212.75; 586.80693; 111551.62614506
213.77; 605.98352; 112168.49121689
214.79; 627.14013; 112806.892811
215.81; 650.18365; 113468.75170569
216.82; 675.13323; 114156.00819686
217.84; 702.07128; 114870.68646836
218.86; 731.08239; 115614.89679005
219.88; 762.20942; 116390.7930852
220.90; 795.44282; 117200.51955431
221.91; 830.73888; 118046.17588433
222.93; 868.04689; 118929.81016205
223.95; 907.32184; 119853.42463987
224.97; 948.50967; 120818.96655216
225.99; 991.51161; 121828.28258773
227.00; 1036.1496; 122883.03817421
228.02; 1082.157; 123984.62734147
229.04; 1129.2033; 125134.10761959
230.06; 1176.9339; 126332.17556111
231.08; 1224.9828; 127579.15521351
232.09; 1272.9112; 128874.92388413
233.11; 1320.0482; 130218.67603708
234.13; 1365.2604; 131608.4522304
235.15; 1406.7295; 133040.44220586
236.17; 1441.8561; 134508.18950348
237.18; 1467.3965; 136001.93584646
238.20; 1479.8853; 137508.39525218
239.22; 1476.297; 139011.20190919
240.24; 1454.801; 140492.12656195
241.26; 1415.396; 141932.93859364
242.27; 1360.2095; 143317.57313537
243.29; 1293.3252; 144634.12236842
244.31; 1220.1342; 145876.16637947
245.33; 1146.3549; 147043.10624074
246.35; 1076.9767; 148139.42202648
247.36; 1015.4148; 149173.07046604
248.38; 963.10067; 150153.46539298
249.40; 919.59493; 151089.57334677
250.42; 883.1468; 151988.57868334
251.44; 851.48907; 152855.35781234
252.45; 822.59929; 153692.72839069
253.47; 795.19501; 154502.20259219
254.49; 768.84451; 155284.85312944
255.51; 743.72233; 156041.93036931
256.53; 720.16413; 156775.02637438
257.54; 698.23471; 157485.79917684
258.56; 677.49702; 158175.46190712
259.58; 657.0743; 158844.33519175
260.60; 635.97177; 159491.72701434
261.61; 613.51804; 160116.26190442
262.63; 589.73943; 160716.59120013
263.65; 565.50823; 161292.2541712
264.67; 542.39419; 161844.38805025
265.69; 522.2626; 162376.02884162
266.70; 506.75631; 162891.88489272
267.72; 496.84044; 163397.64702419
268.74; 492.56272; 163899.0546198
269.76; 493.10192; 164401.01110074
270.78; 497.0746; 164907.01159414
271.79; 502.98276; 165419.02633883
272.81; 509.6445; 165937.82244794
273.83; 516.4666; 166463.56316478
274.85; 523.48352; 166996.44679916
275.87; 531.17423; 167537.15924335
276.88; 540.14498; 168087.00352661
277.90; 550.80563; 168647.69988462
278.92; 563.15928; 169220.97172795
279.94; 576.7762; 169808.10500814
280.96; 590.95325; 170409.66991554
281.97; 604.99593; 171025.52966474
282.99; 618.52144; 171655.15780305
284.01; 631.67869; 172298.17945129
285.03; 645.21083; 172954.97623594
286.05; 660.33521; 173627.16898777
287.06; 678.46673; 174317.81884099
288.08; 700.8499; 175031.25379471
289.10; 728.18417; 175772.51385742
290.12; 760.32593; 176546.49284547
291.14; 796.13362; 177356.92251107
292.15; 833.49525; 178205.38471097
293.17; 869.54553; 179090.54454107
294.19; 901.04546; 180007.76993759
295.21; 924.86504; 180949.24263523
296.23; 938.48308; 181904.57791837
297.24; 940.405; 182861.86962434
298.26; 930.40615; 183808.98293622
299.28; 909.53968; 184734.85508619
300.30; 879.89911; 185630.55440933
301.32; 844.18734; 186489.9006929
302.33; 805.19637; 187309.55585358
303.35; 765.32784; 188088.62657195
304.37; 726.27288; 188827.94102779
305.39; 688.92093; 189529.23280428
306.41; 653.49616; 190194.4636931
307.42; 619.8507; 190825.4449536
308.44; 587.79962; 191423.79959818
309.46; 557.37974; 191991.18812235
310.48; 528.95217; 192529.63860219
311.49; 503.1323; 193041.80557458
312.51; 480.59622; 193531.03178957
313.53; 461.85398; 194001.17920829
314.55; 447.08487; 194456.29231351
315.57; 436.09739; 194900.22064253
316.58; 428.42282; 195336.3365849
317.60; 423.49865; 195767.43993699
318.62; 420.86681; 196195.86418667
319.64; 420.31141; 196623.72306722
320.66; 421.88947; 197053.18834481
321.67; 425.85036; 197486.68563874
322.69; 432.47908; 197926.93067589
323.71; 441.91967; 198376.7858343
324.73; 454.03428; 198838.97314011
325.75; 468.33387; 199315.71680903
326.76; 483.99085; 199808.39861296
327.78; 499.92104; 200317.2966548
328.80; 514.91021; 200841.45302655
329.82; 527.75908; 201378.68899571
330.84; 537.42454; 201925.76399109
331.85; 543.14036; 202478.65743716
332.87; 544.50319; 203032.93819114
333.89; 541.51165; 203584.17368833
334.91; 534.54951; 204128.32202619
335.93; 524.31298; 204662.0500184
336.94; 511.69463; 205182.93306689
337.96; 497.64911; 205689.51838247
338.98; 483.0723; 206181.26513719
340.00; 468.72062; 206658.40249837
341.02; 455.18233; 207121.75847336
342.03; 442.89291; 207572.60434354
343.05; 432.17079; 208012.53555782
344.07; 423.24669; 208443.38242608
345.09; 416.26972; 208867.12703864
346.11; 411.29299; 209285.80554977
347.12; 408.25922; 209701.39582318
348.14; 407.01286; 210115.71735217
349.16; 407.35403; 210530.38618051
350.18; 409.12616; 210946.85895441
351.20; 412.30307; 211366.56569147
352.21; 417.02907; 211791.0832915
353.23; 423.57478; 212222.26414416
354.25; 432.20389; 212662.22905131
355.27; 442.98821; 213113.17192903
356.28; 455.64329; 213576.99713975
357.30; 469.46513; 214054.89238302
358.32; 483.42261; 214546.99573738
359.34; 496.40595; 215052.31557141
360.36; 507.56718; 215568.99706277
361.37; 516.64107; 216094.91537529
362.39; 524.12439; 216628.45138472
363.41; 531.22716; 217169.21771264
364.43; 539.5807; 217718.4875813
365.45; 550.7711; 218279.1487966
366.46; 565.83211; 218855.14146741
367.48; 584.85374; 219450.49734152
368.50; 606.83354; 220068.22770161
369.52; 629.82455; 220709.36191835
370.54; 651.34338; 221372.4013705
371.55; 668.92307; 222053.33618822
372.57; 680.65534; 222746.21395525
373.59; 685.57604; 223444.10077979
374.61; 683.80113; 224140.18082725
375.63; 676.3981; 224828.72490344
376.64; 665.05239; 225505.7195377
377.66; 651.63833; 226169.05924192
378.68; 637.81524; 226818.32762962
379.70; 624.74461; 227454.29068037
380.72; 612.97581; 228078.27360851
381.73; 602.49393; 228691.58643062
382.75; 592.88205; 229295.11477014
383.77; 583.53127; 229889.12442504
384.79; 573.83585; 230473.26455983
385.81; 563.33179; 231046.71201094
386.82; 551.76426; 231608.38421841
387.84; 539.09198; 232157.15659575
388.86; 525.44945; 232692.04146073
389.88; 511.08985; 233212.30887512
390.90; 496.32591; 233717.54723062
391.91; 481.47773; 234207.67078733
392.93; 466.83108; 234682.88467894
393.95; 452.60704; 235143.61911001
394.97; 438.94547; 235590.44665291
395.99; 425.90557; 236024.00014867
397.00; 413.48647; 236444.9115278
398.02; 401.66636; 236853.7905535
399.04; 390.45286; 237251.25471302
400.06; 379.93055; 237638.00761469
401.07; 370.28993; 238014.94678629
402.09; 361.82426; 238383.26826578
403.11; 354.88932; 238744.53027474
404.13; 349.83246; 239100.6446222
405.15; 346.9075; 239453.78148947
406.16; 346.19813; 239806.19624287
407.18; 347.57143; 240160.00896487
408.20; 350.67574; 240516.98174083
409.22; 354.98512; 240878.34127771
410.24; 359.88148; 241244.68509076
411.25; 364.75704; 241615.9920193
412.27; 369.11784; 241991.73805328
413.29; 372.67173; 242371.10179417
414.31; 375.39058; 242753.23320367
415.33; 377.54145; 243137.554104
416.34; 379.68418; 243524.05621401
417.36; 382.63207; 243913.55915271
418.38; 387.37081; 244307.88591812
419.40; 394.93202; 244709.90966898
420.42; 406.22494; 245123.42912573
421.43; 421.84284; 245552.84692895
422.45; 441.87719; 246002.65884367
423.47; 465.78532; 246476.80819696
424.49; 492.35892; 246978.00833534
425.51; 519.82726; 247507.17005899
426.52; 546.09876; 248063.07503156
427.54; 569.10649; 248642.40088025
428.56; 587.18679; 249240.13169514
429.58; 599.39966; 249850.2946834
430.60; 605.70407; 250466.87528693
431.61; 606.93274; 251084.7066283
432.63; 604.56227; 251700.12493339
433.65; 600.33092; 252311.23590931
434.67; 595.80078; 252917.7353926
435.69; 591.9782; 253520.34365854
436.70; 589.09112; 254120.01299478
437.72; 586.57729; 254717.12336103
438.74; 583.27875; 255310.87596031
439.76; 577.78163; 255899.03272286
440.78; 568.80477; 256478.05143241
441.79; 555.53458; 257043.56166283
442.81; 537.82637; 257591.04569526
443.83; 516.23574; 258116.55139932
444.85; 491.89173; 258617.27595328
445.87; 466.26203; 259091.9105752
446.88; 440.88005; 259540.7074457
447.90; 417.10124; 259965.29850876
448.92; 395.93603; 260368.3443043
449.94; 377.97938; 260753.11100586
450.95; 363.42972; 261123.06677375
451.97; 352.17217; 261481.56284504
452.99; 343.89356; 261831.6316494
454.01; 338.19879; 262175.90342753
455.03; 334.70654; 262516.62023794
456.04; 333.11171; 262855.71357954
457.06; 333.21098; 263194.90797966
458.08; 334.89405; 263535.81567132
459.10; 338.10819; 263879.99522331
460.12; 342.80784; 264228.95880765
461.13; 348.90396; 264584.12798516
462.15; 356.23014; 264946.75489121
463.17; 364.54047; 265317.84135901
464.19; 373.54915; 265698.09827928
465.21; 383.01069; 266087.9866389
466.22; 392.82667; 266487.86724116
467.24; 403.15225; 266898.25883818
468.26; 414.46851; 267320.16989171
469.28; 427.58939; 267755.43744105
470.30; 443.58689; 268206.98974987
471.31; 463.64263; 268678.95794251
472.33; 488.86352; 269176.59991185
473.35; 520.12211; 269706.06177276
474.37; 557.99016; 270274.07167626
475.39; 602.81725; 270887.7136206
476.40; 654.96487; 271554.43959873
477.42; 715.14829; 272282.42969526
478.44; 784.77929; 273081.30114975
479.46; 866.16543; 273963.020185
480.48; 962.4232; 274942.72547484
481.49; 1077.015; 276039.08030053
482.51; 1212.9164; 277273.77681281
483.53; 1371.5376; 278669.94290745
484.55; 1551.6325; 280249.43785113
485.57; 1748.4827; 282029.31782623
486.58; 1953.632; 284018.03094749
487.60; 2155.3464; 286212.08057636
488.62; 2339.8159; 288593.91216176
489.64; 2492.9316; 291131.60899082
490.66; 2602.3154; 293780.65375591
491.67; 2659.1951; 296487.59962259
492.69; 2659.7372; 299195.09734297
493.71; 2605.5585; 301847.44342916
494.73; 2503.3232; 304395.71839315
495.74; 2363.5343; 306801.69435129
496.76; 2198.797; 309039.97477363
497.78; 2021.9276; 311098.20985773
498.80; 1844.2855; 312975.61287798
499.82; 1674.6132; 314680.2968276
500.83; 1518.5327; 316226.09761785
501.85; 1378.6791; 317629.53348193
502.87; 1255.3206; 318907.39570889
503.89; 1147.2331; 320075.22953615
504.91; 1052.5836; 321146.71417511
505.92; 969.62325; 322133.74880538
506.94; 897.07932; 323046.93684619
507.96; 834.22877; 323896.1457344
508.98; 780.72404; 324690.88911517
510.00; 736.289; 325440.39954906
511.01; 700.41528; 326153.39208092
512.03; 672.16383; 326837.62584992
513.05; 650.12826; 327499.42836622
514.07; 632.56054; 328143.34769952
515.09; 617.612; 328772.05006808
516.10; 603.61494; 329386.50402856
517.12; 589.3257; 329986.41215604
518.14; 574.06834; 330570.78895537
519.16; 557.74979; 331138.55417853
520.18; 540.75328; 331689.01768788
521.19; 523.74687; 332222.16940124
522.21; 507.46072; 332738.74251842
523.23; 492.48829; 333240.07434363
524.25; 479.1541; 333727.83254332
525.27; 467.46978; 334203.69661224
526.28; 457.17611; 334669.08216695
527.30; 447.84896; 335124.97308
528.32; 439.03466; 335571.89141618
529.34; 430.37788; 336009.99752967
530.36; 421.71162; 336439.28176594
531.37; 413.09188; 336859.79147863
532.39; 404.77504; 337271.83499897
533.41; 397.14948; 337676.11603621
534.43; 390.64193; 338073.77266507
535.45; 385.62079; 338466.31798654
536.46; 382.3157; 338855.49886783
537.48; 380.76536; 339243.10157716
538.50; 380.79906; 339630.73858706
539.52; 382.05263; 340019.65167848
540.54; 384.01797; 340410.5654043
541.55; 386.12373; 340803.62270014
542.57; 387.8416; 341198.42870843
543.59; 388.80513; 341594.21555478
544.61; 388.91764; 341990.11692884
545.62; 388.4171; 342385.50877674
546.64; 387.86633; 342780.33996641
547.66; 388.05037; 343175.35849613
548.68; 389.79065; 343572.14855307
549.70; 393.71915; 343972.93766223
550.71; 400.08187; 344380.20374201
551.73; 408.64537; 344796.18709886
552.75; 418.75563; 345222.46226485
553.77; 429.54776; 345659.72334742
554.79; 440.24704; 346107.87583882
555.80; 450.45961; 346566.4242805
556.82; 460.34699; 347035.03765359
557.84; 470.62125; 347514.10977769
558.86; 482.37288; 348005.14455914
559.88; 496.8227; 348510.88862787
560.89; 515.1328; 349035.27159106
561.91; 538.39413; 349583.33358377
562.93; 567.82496; 350161.35488799
563.95; 605.09461; 350777.31509504
564.97; 652.5796; 351441.61296881
565.98; 713.31933; 352167.7412625
567.00; 790.50002; 352972.43616783
568.02; 886.45296; 353874.807029
569.04; 1001.3604; 354894.14870334
570.06; 1132.043; 356046.51962719
571.07; 1271.2801; 357340.62793412
572.09; 1408.0403; 358773.95218607
573.11; 1528.7784; 360330.18265253
574.13; 1619.6471; 361978.91354121
575.15; 1669.1674; 363678.05390385
576.16; 1670.7114; 365378.76601098
577.18; 1624.1378; 367032.0682032
578.20; 1536.1022; 368595.75391676
579.22; 1418.899; 370040.13183674
580.24; 1288.0785; 371351.3401323
581.25; 1159.4125; 372531.57207717
582.27; 1045.9601; 373596.31432237
583.29; 955.95238; 374569.43259672
584.31; 891.989; 375477.43891155
585.33; 851.66731; 376344.39948471
