#Wavenumber (cm^-1); Spectrum (K*cm*km*mol^-1); Integral (K*km*mol^-1)
0.00; 0.86884284; 0.88444452106703
1.02; 0.91694179; 1.8178516913929
2.04; 1.0564562; 2.8932784682251
3.05; 1.2741575; 4.1903158283226
4.07; 1.5514218; 5.7695962592618
5.09; 1.8683781; 7.6715244941889
6.11; 2.2080312; 9.9192050026999
7.13; 2.5592606; 12.524421868311
8.14; 2.9179328; 15.494751574232
9.16; 3.2859195; 18.839675789641
10.18; 3.668419; 22.573967998894
11.20; 4.0704734; 26.717534300281
12.22; 4.4937989; 31.292027714882
13.23; 4.9349442; 36.315587909528
14.25; 5.3853789; 41.797671290373
15.27; 5.8335133; 47.735936063246
16.29; 6.2680299; 54.116520004288
17.31; 6.6814754; 60.917973628563
18.32; 7.0729302; 68.117911334809
19.34; 7.4488241; 75.700492848785
20.36; 7.8215165; 83.662459145679
21.38; 8.2059566; 92.01576889317
22.40; 8.6153672; 100.78584090755
23.41; 9.0572434; 110.00572388279
24.43; 9.5309081; 119.70777707162
25.45; 10.027407; 129.9152448673
26.47; 10.531808; 140.6361708935
27.48; 11.0272; 151.86138461641
28.50; 11.499152; 163.56702522456
29.52; 11.93924; 175.72065613579
30.54; 12.346576; 188.28893816782
31.56; 12.726959; 201.24443344877
32.57; 13.090043; 214.56953228694
33.59; 13.4456; 228.25657260414
34.61; 13.800186; 242.30456602891
35.63; 14.155325; 256.71407586867
36.65; 14.507727; 271.48231562534
37.66; 14.851292; 286.60028957403
38.68; 15.18003; 302.05290503857
39.70; 15.49074; 317.82181041056
40.72; 15.784457; 333.88970626779
41.74; 16.066202; 350.2444069301
42.75; 16.343261; 366.88114095857
43.77; 16.622714; 383.80234697525
44.79; 16.909232; 401.01521522355
45.81; 17.203908; 418.52805110868
46.83; 17.504519; 436.34689608803
47.84; 17.806988; 454.47364167426
48.86; 18.107452; 472.90624648133
49.88; 18.404168; 491.64089570818
50.90; 18.698663; 510.6753278445
51.92; 18.995857; 530.01229065419
52.93; 19.303288; 549.6622045803
53.95; 19.629788; 569.64448176154
54.97; 19.984045; 589.98737772969
55.99; 20.373356; 610.7265751212
57.01; 20.80272; 631.90284668886
58.02; 21.274289; 653.55915520572
59.04; 21.787128; 675.7375114496
60.06; 22.337283; 698.47590132694
61.08; 22.918175; 721.80561437489
62.10; 23.521314; 745.74929716525
63.11; 24.137215; 770.31994061688
64.13; 24.756283; 795.520768361
65.15; 25.369376; 821.34569850232
66.17; 25.967857; 847.7798559159
67.19; 26.543183; 874.79967080381
68.20; 27.086411; 902.37246858928
69.22; 27.588165; 930.45602985464
70.24; 28.039586; 958.99911844022
71.26; 28.434418; 987.94412913499
72.27; 28.771798; 1017.2325781592
73.29; 29.058782; 1046.8131638698
74.31; 29.311349; 1076.6508521434
75.33; 29.552853; 1106.7343817196
76.35; 29.809583; 1137.0792505191
77.36; 30.104123; 1167.7239484112
78.38; 30.448197; 1198.7188990911
79.40; 30.837187; 1230.1098251665
80.42; 31.248399; 1261.9193473419
81.44; 31.644251; 1294.1318295115
82.45; 31.980187; 1326.6862796564
83.47; 32.215662; 1359.4804330354
84.49; 32.32548; 1392.3863766549
85.51; 32.308445; 1425.2749798067
86.53; 32.19083; 1458.0438554672
87.54; 32.023429; 1490.642323813
88.56; 31.872595; 1523.0872497977
89.58; 31.807184; 1555.4655902144
90.60; 31.884373; 1587.9225064458
91.62; 32.137617; 1620.6372142585
92.63; 32.569483; 1653.7915422113
93.65; 33.150973; 1687.5378017846
94.67; 33.827446; 1721.9726816822
95.69; 34.529748; 1757.1224753775
96.71; 35.188045; 1792.9423866063
97.72; 35.745277; 1829.3295357667
98.74; 36.167341; 1866.1463282224
99.76; 36.447896; 1903.2487137265
100.78; 36.606976; 1940.5130357721
101.80; 36.684035; 1977.8558002957
102.81; 36.727284; 2015.2425909808
103.83; 36.781944; 2052.6850223461
104.85; 36.880101; 2090.2273740188
105.87; 37.034325; 2127.9267186513
106.89; 37.236098; 2165.831460015
107.90; 37.458965; 2203.9630696286
108.92; 37.665204; 2242.3046224539
109.94; 37.814268; 2280.7979152385
110.96; 37.871076; 2319.3490360999
111.98; 37.812667; 2357.840699361
112.99; 37.632269; 2396.1487257888
114.01; 37.340518; 2434.1597615813
115.03; 36.964019; 2471.7875382375
116.05; 36.54175; 2508.9854629989
117.07; 36.119863; 2545.7539249
118.08; 35.745536; 2582.1413381178
119.10; 35.460546; 2618.2386442542
120.12; 35.295358; 2654.1677954326
121.14; 35.264573; 2690.0656087537
122.15; 35.364533; 2726.0651772422
123.17; 35.573555; 2762.2775212357
124.19; 35.854803; 2798.7761630016
125.21; 36.161231; 2835.5867353514
126.23; 36.441615; 2872.6827272169
127.24; 36.646563; 2909.9873469706
128.26; 36.733668; 2947.3806361158
129.28; 36.67153; 2984.7106711755
130.30; 36.442896; 3021.8079670712
131.32; 36.04748; 3058.5027466958
132.33; 35.504763; 3094.6450637936
133.35; 34.856399; 3130.127373609
134.37; 34.166939; 3164.9078429415
135.39; 33.520991; 3199.0307652752
136.41; 33.015056; 3232.6386678151
137.42; 32.743451; 3265.9700876938
138.44; 32.779712; 3299.3384196089
139.46; 33.157147; 3333.0909647123
140.48; 33.853853; 3367.5527265061
141.50; 34.787728; 3402.9651326259
142.51; 35.825327; 3439.4337693556
143.53; 36.804969; 3476.8996391097
144.55; 37.570236; 3515.144517962
145.57; 38.006209; 3553.8331987781
146.59; 38.068867; 3592.5856624009
147.60; 37.798946; 3631.0633582925
148.62; 37.315252; 3669.0486743134
149.64; 36.787987; 3706.4972571511
150.66; 36.398474; 3743.5493326172
151.68; 36.295796; 3780.4968867471
152.69; 36.561954; 3817.7153778964
153.71; 37.194702; 3855.5779797586
154.73; 38.112019; 3894.3743706601
155.75; 39.175814; 3934.2536586768
156.77; 40.227117; 3975.2031276485
157.78; 41.122254; 4017.0638082014
158.80; 41.760214; 4059.5739037902
159.82; 42.095085; 4102.4248839422
160.84; 42.132731; 4145.3141857053
161.86; 41.915747; 4187.9826070472
162.87; 41.503743; 4230.2316261666
163.89; 40.956131; 4271.9232000125
164.91; 40.322245; 4312.9695059418
165.93; 39.639881; 4353.3211947241
166.94; 38.939782; 4392.9602125103
167.96; 38.251589; 4431.8986796561
168.98; 37.606894; 4470.1808754191
170.00; 37.037033; 4507.8829769269
171.02; 36.566141; 4545.1057302458
172.03; 36.202479; 4581.9582921558
173.05; 35.932122; 4618.5356414409
174.07; 35.718371; 4654.8954015233
175.09; 35.508178; 4691.0411944664
176.11; 35.244166; 4726.9182342678
177.12; 34.878765; 4762.4233119028
178.14; 34.386186; 4797.4269656834
179.16; 33.768692; 4831.8020369762
180.18; 33.055565; 4865.4511762021
181.20; 32.295495; 4898.326596813
182.21; 31.544983; 4930.4380280426
183.23; 30.856231; 4961.8483397191
184.25; 30.267646; 4992.659497212
185.27; 29.798845; 5022.9934353704
186.29; 29.450495; 5052.9727680928
187.30; 29.207966; 5082.7052170706
188.32; 29.047071; 5112.2738819849
189.34; 28.940141; 5141.7336969831
190.36; 28.861183; 5171.1131357911
191.38; 28.789506; 5200.4196106884
192.39; 28.711739; 5229.6469224446
193.41; 28.622388; 5258.7832783981
194.43; 28.523109; 5287.8185724457
195.45; 28.420835; 5316.7497563512
196.47; 28.32496; 5345.5833438377
197.48; 28.244038; 5374.3345555695
198.50; 28.182784; 5403.0234133344
199.52; 28.140366; 5431.6690915634
200.54; 28.110816; 5460.2846897049
201.56; 28.085855; 5488.8748777999
202.57; 28.059558; 5517.4382969808
203.59; 28.033496; 5545.9751865504
204.61; 28.020508; 5574.4988549577
205.63; 28.045511; 5603.0479749197
206.65; 28.142612; 5631.6959397919
207.66; 28.349067; 5660.5540668676
208.68; 28.697799; 5689.7671877952
209.70; 29.210823; 5719.5025454624
210.72; 29.895672; 5749.9350490477
211.74; 30.745864; 5781.2330113895
212.75; 31.745044; 5813.548095999
213.77; 32.873122; 5847.0115155166
214.79; 34.11219; 5881.7362534284
215.81; 35.450324; 5917.8231537641
216.82; 36.882437; 5955.3678830898
217.84; 38.408666; 5994.4662478621
218.86; 40.031686; 6035.2167762632
219.88; 41.754507; 6077.7210630286
220.90; 43.579707; 6122.0833238518
221.91; 45.509951; 6168.4104901887
222.93; 47.54885; 6216.8131672463
223.95; 49.700909; 6267.406548407
224.97; 51.969966; 6320.309731624
225.99; 54.356491; 6375.6422936675
227.00; 56.855054; 6433.5182848847
228.02; 59.453354; 6494.0392335896
229.04; 62.133332; 6557.2882847255
230.06; 64.873368; 6623.3265741349
231.08; 67.649175; 6692.190515312
232.09; 70.430715; 6763.8859440499
233.11; 73.17376; 6838.3736738515
234.13; 75.807457; 6915.5423935266
235.15; 78.222366; 6995.1693867061
236.17; 80.265464; 7076.8761659164
237.18; 81.748248; 7160.0923547286
238.20; 82.470823; 7244.0440935116
239.22; 82.25948; 7327.780694744
240.24; 81.009509; 7410.2448793408
241.26; 78.721183; 7490.3796469769
242.27; 75.51681; 7567.2525009156
243.29; 71.63101; 7640.1697776355
244.31; 67.373957; 7708.7535584023
245.33; 63.075721; 7772.9619203115
246.35; 59.02612; 7833.0479631575
247.36; 55.426319; 7889.4695642793
248.38; 52.364893; 7942.7747658085
249.40; 49.823366; 7993.4928028639
250.42; 47.706989; 8042.056458904
251.44; 45.888933; 8088.7694121436
252.45; 44.252852; 8133.8169060535
253.47; 42.720817; 8177.3048546543
254.49; 41.260061; 8219.3058163045
255.51; 39.870234; 8259.8919935344
256.53; 38.55982; 8299.1442267353
257.54; 37.323547; 8337.1379866695
258.56; 36.13101; 8373.9177956565
259.58; 34.931324; 8409.476376444
260.60; 33.671538; 8443.7525488458
261.61; 32.320792; 8476.6537203191
262.63; 30.889827; 8508.0982309099
263.65; 29.437258; 8538.0640889612
264.67; 28.059217; 8566.6271613882
265.69; 26.865332; 8593.9749098359
266.70; 25.949143; 8620.3900178018
267.72; 25.363073; 8646.2085320652
268.74; 25.106247; 8671.7656078418
269.76; 25.128753; 8697.3455935503
270.78; 25.350112; 8723.15091375
271.79; 25.684976; 8749.297110691
272.81; 26.067071; 8775.8322643186
273.83; 26.463697; 8802.7711656461
274.85; 26.876931; 8830.1307215734
275.87; 27.332651; 8857.9541811227
276.88; 27.862598; 8886.3171038577
277.90; 28.486697; 8915.3153321004
278.92; 29.202146; 8945.0418562136
279.94; 29.982889; 8975.5631433849
280.96; 30.7892; 9006.9052208217
281.97; 31.583625; 9039.055987798
282.99; 32.34758; 9071.9844282822
284.01; 33.09295; 9105.6716235031
285.03; 33.864753; 9140.1444805584
286.05; 34.733695; 9175.5018834942
287.06; 35.780203; 9211.9245864045
288.08; 37.073587; 9249.6638979825
289.10; 38.651019; 9289.0089673208
290.12; 40.500946; 9330.2371826331
291.14; 42.554651; 9373.5559811848
292.15; 44.688228; 9419.0466691733
293.17; 46.735429; 9466.6213191455
294.19; 48.509869; 9516.002272489
295.21; 49.833132; 9566.7302508204
296.23; 50.563712; 9618.2019276772
297.24; 50.620924; 9669.7318434958
298.26; 49.99837; 9720.6280268102
299.28; 48.763431; 9770.2670950465
300.30; 47.042376; 9818.1542039383
301.32; 44.994352; 9863.956512548
302.33; 42.780542; 9907.5052584561
303.35; 40.536276; 9948.7694382947
304.37; 38.35302; 9987.8111572993
305.39; 36.274219; 10024.736746649
306.41; 34.304701; 10059.657451643
307.42; 32.42922; 10092.668998646
308.44; 30.633155; 10123.852228132
309.46; 28.918206; 10153.289714428
310.48; 27.308281; 10181.08836616
311.49; 25.844541; 10207.396993877
312.51; 24.572608; 10232.410848622
313.53; 23.527488; 10256.360815917
314.55; 22.7222; 10279.491035039
315.57; 22.144265; 10302.032940951
316.58; 21.760981; 10324.184681023
317.60; 21.531135; 10346.102446847
318.62; 21.418584; 10367.905640658
319.64; 21.402859; 10389.69282785
320.66; 21.48331; 10411.5619101
321.67; 21.675822; 10433.626961193
322.69; 22.003667; 10456.02574493
323.71; 22.485712; 10478.915229761
324.73; 23.12564; 10502.4561335
325.75; 23.905086; 10526.790479092
326.76; 24.782133; 10552.017621379
327.78; 25.695107; 10578.174131626
328.80; 26.57043; 10605.221682383
329.82; 27.33273; 10633.045221962
330.84; 27.915262; 10661.461754432
331.85; 28.268878; 10690.238252527
332.87; 28.368134; 10719.11578861
333.89; 28.213585; 10747.836000393
334.91; 27.829938; 10776.165676467
335.93; 27.260522; 10803.915711465
336.94; 26.559337; 10830.951970393
337.96; 25.782544; 10857.197487534
338.98; 24.981332; 10882.627405519
340.00; 24.197586; 10907.259504154
341.02; 23.462758; 10931.143579213
342.03; 22.799216; 10954.352197754
343.05; 22.222608; 10976.973853567
344.07; 21.7437; 10999.108002048
345.09; 21.3689; 11020.860619776
346.11; 21.099705; 11042.339209341
347.12; 20.932281; 11063.64736837
348.14; 20.85852; 11084.880441497
349.16; 20.869266; 11106.124454122
350.18; 20.959034; 11127.459846494
351.20; 21.130238; 11148.969516928
352.21; 21.394444; 11170.748137456
353.23; 21.768852; 11192.907889885
354.25; 22.268097; 11215.57585137
355.27; 22.893748; 11238.880698563
356.28; 23.625669; 11262.930610207
357.30; 24.419587; 11287.788696408
358.32; 25.213596; 11313.455048983
359.34; 25.94318; 11339.864086598
360.36; 26.560845; 11366.901880658
361.37; 27.05395; 11394.441634143
362.39; 27.454008; 11422.388629852
363.41; 27.8329; 11450.721320914
364.43; 28.285511; 11479.514750105
365.45; 28.902943; 11508.936698991
366.46; 29.743936; 11539.214742453
367.48; 30.813199; 11570.581249283
368.50; 32.053562; 11603.210392157
369.52; 33.354723; 11637.164060641
370.54; 34.576331; 11672.361273446
371.55; 35.578889; 11708.579046951
372.57; 36.253836; 11745.483887379
373.59; 36.544813; 11782.684930308
374.61; 36.455134; 11819.794683356
375.63; 36.040755; 11856.482616432
376.64; 35.392143; 11892.51029082
377.66; 34.611055; 11927.742851003
378.68; 33.788799; 11962.138389981
379.70; 32.991113; 11995.721918957
380.72; 32.252087; 12028.553151884
381.73; 31.576658; 12060.696827313
382.75; 30.948984; 12092.201557882
383.77; 30.343072; 12123.089495948
384.79; 29.732345; 12153.355740577
385.81; 29.09608; 12182.974294871
386.82; 28.422142; 12211.906808716
387.84; 27.7067; 12240.111034159
388.86; 26.95225; 12267.547262009
389.88; 26.165235; 12294.182341925
390.90; 25.354139; 12319.991761186
391.91; 24.528319; 12344.960531948
392.93; 23.697394; 12369.083455968
393.95; 22.870843; 12392.364987546
394.97; 22.0576; 12414.818672135
395.99; 21.265603; 12436.46613799
397.00; 20.501548; 12457.335829373
398.02; 19.771078; 12477.461933813
399.04; 19.079539; 12496.884080791
400.06; 18.433163; 12515.648245244
401.07; 17.84027; 12533.80887025
402.09; 17.311915; 12551.431652518
403.11; 16.861488; 12568.595919389
404.13; 16.50302; 12585.395281678
405.15; 16.248364; 12601.935415327
406.16; 16.103832; 12618.328421095
407.18; 16.067172; 12634.684108389
408.20; 16.125833; 12651.099510267
409.22; 16.257245; 12667.648683708
410.24; 16.431407; 12684.375147376
411.25; 16.615529; 12701.289039096
412.27; 16.779919; 12718.370272584
413.29; 16.904003; 12735.57781797
414.31; 16.981245; 12752.863992584
415.33; 17.021951; 12770.191603718
416.34; 17.053311; 12787.551138071
417.36; 17.116534; 12804.975030916
418.38; 17.261355; 12822.546345739
419.40; 17.538575; 12840.399857896
420.42; 17.991534; 12858.71446271
421.43; 18.647636; 12877.696951049
422.45; 19.511163; 12897.558473227
423.47; 20.558735; 12918.486378728
424.49; 21.738677; 12940.615414334
425.51; 22.975217; 12964.00319408
426.52; 24.177686; 12988.615035479
427.54; 25.25382; 13014.322334931
428.56; 26.125034; 13040.916491739
429.58; 26.740549; 13068.137216781
430.60; 27.08692; 13095.710532798
431.61; 27.190069; 13123.388849397
432.63; 27.108536; 13150.984169749
433.65; 26.918879; 13178.386426887
434.67; 26.696389; 13205.562198427
435.69; 26.495926; 13232.533907735
436.70; 26.337929; 13259.344783147
437.72; 26.203476; 13286.018790566
438.74; 26.039851; 13312.526235093
439.76; 25.775145; 13338.76422093
440.78; 25.337862; 13364.55707126
441.79; 24.676186; 13389.676363951
442.81; 23.771842; 13413.875073728
443.83; 22.645224; 13436.926934282
444.85; 21.351095; 13458.661428051
445.87; 19.966807; 13478.986776294
446.88; 18.576756; 13497.897112344
447.90; 17.257367; 13515.464366796
448.92; 16.066095; 13531.818958289
449.94; 15.036311; 13547.125274464
450.95; 14.178038; 13561.557905504
451.97; 13.483025; 13575.283043363
452.99; 12.931893; 13588.447152894
454.01; 12.501144; 13601.172778124
455.03; 12.168476; 13613.559761184
456.04; 11.915724; 13625.689454262
457.06; 11.729519; 13637.629598458
458.08; 11.600243; 13649.438144941
459.10; 11.520092; 13661.165101035
460.12; 11.481019; 13672.852282504
461.13; 11.473229; 13684.53153483
462.15; 11.484734; 13696.22249807
463.17; 11.502232; 13707.931274332
464.19; 11.513312; 13719.65132911
465.21; 11.509539; 13731.367543003
466.22; 11.489675; 13743.063536148
467.24; 11.462004; 13754.731361342
468.26; 11.444814; 13766.38168789
469.28; 11.464468; 13778.052021161
470.30; 11.551156; 13789.810599896
471.31; 11.733183; 13801.754473493
472.33; 12.031209; 13814.001724959
473.35; 12.454131; 13826.679492821
474.37; 12.997973; 13839.910868773
475.39; 13.648504; 13853.80445723
476.40; 14.387292; 13868.450099211
477.42; 15.199913; 13883.922954438
478.44; 16.08425; 13900.296027113
479.46; 17.056439; 13917.658745703
480.48; 18.152223; 13936.136925868
481.49; 19.422259; 13955.907947762
482.51; 20.921148; 13977.204773513
483.53; 22.691583; 14000.303826006
484.55; 24.746538; 14025.49473392
485.57; 27.053569; 14053.034099501
486.58; 29.525643; 14083.089929869
487.60; 32.022117; 14115.68706294
488.62; 34.361569; 14150.665657489
489.64; 36.345459; 14187.663766653
490.66; 37.788665; 14226.130997073
491.67; 38.550696; 14265.373942194
492.69; 38.560554; 14304.626922302
493.71; 37.82924; 14343.135456253
494.73; 36.446682; 14380.236606213
495.74; 34.563693; 14415.420954595
496.76; 32.363366; 14448.365464839
497.78; 30.028959; 14478.933649113
498.80; 27.715942; 14507.147282273
499.82; 25.534323; 14533.140121431
500.83; 23.544092; 14557.106990981
501.85; 21.762747; 14579.260528697
502.87; 20.18058; 14599.803487838
503.89; 18.777733; 14618.918409835
504.91; 17.537483; 14636.770811236
505.92; 16.452316; 14653.518558607
506.94; 15.522438; 14669.319730909
507.96; 14.749155; 14684.33373437
508.98; 14.127092; 14698.714504213
510.00; 13.639181; 14712.598601797
511.01; 13.256738; 14726.093388735
512.03; 12.94463; 14739.270463074
513.05; 12.669413; 14752.167379047
514.07; 12.407193; 14764.797365777
515.09; 12.148195; 14777.163704038
516.10; 11.89648; 14789.273807607
517.12; 11.665152; 14801.148429479
518.14; 11.469118; 14812.823496853
519.16; 11.318207; 14824.344943194
520.18; 11.213088; 14835.7593834
521.19; 11.145131; 14847.104645417
522.21; 11.099737; 14858.403698484
523.23; 11.061427; 14869.663753943
524.25; 11.01848; 14880.88009113
525.27; 10.965418; 14892.042413518
526.28; 10.902725; 14903.140917083
527.30; 10.834406; 14914.169874747
528.32; 10.764825; 14925.128002155
529.34; 10.696384; 14936.016459024
530.36; 10.629043; 14946.83636601
531.37; 10.561773; 14957.587795191
532.39; 10.495118; 14968.271372022
533.41; 10.433595; 14978.892321858
534.43; 10.386738; 14989.465572859
535.45; 10.368116; 15000.019867469
536.46; 10.392472; 15010.598955936
537.48; 10.471774; 15021.258769827
538.50; 10.61139; 15032.06070741
539.52; 10.807651; 15043.062430144
540.54; 11.047716; 15054.308528218
541.55; 11.312154; 15065.823812732
542.57; 11.579934; 15077.611686355
543.59; 11.834797; 15089.658998699
544.61; 12.071359; 15101.947120765
545.62; 12.29902; 15114.466992619
546.64; 12.541943; 15127.234149005
547.66; 12.834268; 15140.298880067
548.68; 13.211206; 15153.747317217
549.70; 13.698238; 15167.691532771
550.71; 14.30191; 15182.250260239
551.73; 15.005772; 15197.525488715
552.75; 15.77379; 15213.58252586
553.77; 16.561039; 15230.440949184
554.79; 17.328685; 15248.080802344
555.80; 18.058203; 15266.463273459
556.82; 18.759682; 15285.559819863
557.84; 19.471118; 15305.380578029
558.86; 20.249411; 15325.993604843
559.88; 21.157663; 15347.531192312
560.89; 22.255613; 15370.186445934
561.91; 23.599151; 15394.2093628
562.93; 25.250668; 15419.913453475
563.95; 27.295954; 15447.699556303
564.97; 29.857787; 15478.093495285
565.98; 33.094271; 15511.782034866
567.00; 37.172859; 15549.622400984
568.02; 42.219019; 15592.599540932
569.04; 48.249071; 15641.715013094
570.06; 55.106221; 15697.810767798
571.07; 62.423193; 15761.35488421
572.09; 69.631484; 15832.236730491
573.11; 76.02626; 15909.628182646
574.13; 80.879987; 15991.960519127
575.15; 83.582003; 16077.043391514
576.16; 83.770574; 16162.318220805
577.18; 81.422497; 16245.202809345
578.20; 76.874132; 16323.457358642
579.22; 70.764703; 16395.492772901
580.24; 63.913184; 16460.553636748
581.25; 57.158099; 16518.738114884
582.27; 51.19987; 16570.85737272
583.29; 46.484809; 16618.176902477
584.31; 43.158325; 16662.110215377
585.33; 41.095509; 16703.943670225
