#Wavenumber (cm^-1); Spectrum (K*cm*km*mol^-1); Integral (K*km*mol^-1)
0.00; 0.070334504; 0.071597490368343
1.02; 0.075075209; 0.14802081356245
2.04; 0.089026753; 0.23864620654468
3.05; 0.11146371; 0.35211145804239
4.07; 0.14142924; 0.49608032519539
5.09; 0.17800481; 0.67728153722691
6.11; 0.22051965; 0.90176102686287
7.13; 0.26862362; 1.1752082849555
8.14; 0.32220903; 1.5032031697349
9.16; 0.38123277; 1.8912816752794
10.18; 0.44552943; 2.3448114099077
11.20; 0.51470166; 2.868755486884
12.22; 0.58812953; 3.4674459703684
13.23; 0.66507786; 4.144466531954
14.25; 0.74483073; 4.9026720791473
15.27; 0.82677187; 5.7442901659823
16.29; 0.91036365; 6.6710010779245
17.31; 0.99504111; 7.6839099863198
18.32; 1.0800965; 8.7834016425816
19.34; 1.1646526; 9.9689677224494
20.36; 1.2477893; 11.239163431354
21.38; 1.3288125; 12.591837182845
22.40; 1.4075614; 14.024673984573
23.41; 1.4846018; 15.535934577896
24.43; 1.5611606; 17.125128719989
25.45; 1.6387528; 18.793308391339
26.47; 1.718582; 20.542750659455
27.48; 1.8009193; 22.376008789774
28.50; 1.8847198; 24.294572242274
29.52; 1.9676787; 26.297584288213
30.54; 2.0467833; 28.381121402613
31.56; 2.11922; 30.538395938345
32.57; 2.1833349; 32.760936624709
33.59; 2.2392894; 35.040436622016
34.61; 2.2891347; 37.370676923425
35.63; 2.3362247; 39.748852812994
36.65; 2.3841353; 42.175799621267
37.66; 2.4354499; 44.654982481594
38.68; 2.4908439; 47.190554067776
39.70; 2.5488104; 49.785133034653
40.72; 2.6061514; 52.438082661747
41.74; 2.6590918; 55.14492337656
42.75; 2.7046532; 57.898143576638
43.77; 2.7418313; 60.689209540661
44.79; 2.7721871; 63.511176421612
45.81; 2.7996497; 66.361099000689
46.83; 2.8295815; 69.241490901323
47.84; 2.8673755; 72.160355431667
48.86; 2.916978; 75.129713126887
49.88; 2.9797356; 78.162955336326
50.90; 3.0538571; 81.271650044956
51.92; 3.1346131; 84.462550897606
52.93; 3.2152161; 87.735502106059
53.95; 3.2881755; 91.08272292022
54.97; 3.3468309; 94.489652364841
55.99; 3.3867347; 97.937202185013
57.01; 3.406592; 101.40496584566
58.02; 3.4085487; 104.87472131159
59.04; 3.3977591; 108.3334934509
60.06; 3.3813261; 111.77553746804
61.08; 3.3668669; 115.20286263783
62.10; 3.3610668; 118.62428363646
63.11; 3.3685943; 122.05336726208
64.13; 3.3916446; 125.50591510473
65.15; 3.4301766; 128.99768682713
66.17; 3.4826636; 132.54288811621
67.19; 3.5469977; 136.15357874591
68.20; 3.6211378; 139.83974072771
69.22; 3.7032225; 143.60946138112
70.24; 3.7911325; 147.46867070875
71.26; 3.8817842; 151.420159564
72.27; 3.9706311; 155.4620906705
73.29; 4.051837; 159.5866858935
74.31; 4.1193356; 163.77999172939
75.33; 4.1685866; 168.02343302422
76.35; 4.1984463; 172.29727019028
77.36; 4.212361; 176.58527188906
78.38; 4.2182062; 180.87922373422
79.40; 4.2265177; 185.18163634499
80.42; 4.2474692; 189.50537673513
81.44; 4.2875073; 193.86987410785
82.45; 4.3468227; 198.29475202174
83.47; 4.4186778; 202.79277537411
84.49; 4.4910339; 207.36445413289
85.51; 4.5501279; 211.99628803439
86.53; 4.5849164; 216.66353512327
87.54; 4.5909243; 221.33689798192
88.56; 4.5721664; 225.9911660624
89.58; 4.5404259; 230.61312369918
90.60; 4.5120611; 235.20620717382
91.62; 4.5033482; 239.79042135613
92.63; 4.525857; 244.39754850511
93.65; 4.5833154; 249.06316581435
94.67; 4.6708863; 253.81792655403
95.69; 4.7769501; 258.68065567238
96.71; 4.8866742; 263.65507913967
97.72; 4.986137; 268.73075139412
98.74; 5.0657158; 273.88743146563
99.76; 5.121826; 279.10122936398
100.78; 5.1567356; 284.35056367183
101.80; 5.176822; 289.62034507903
102.81; 5.190063; 294.9036052038
103.83; 5.2036379; 300.20068402521
104.85; 5.2222966; 305.51675662839
105.87; 5.2477547; 310.85874441917
106.89; 5.2789854; 316.23252378348
107.90; 5.3130396; 321.64096887584
108.92; 5.345988; 327.08295396664
109.94; 5.3737138; 332.55316272292
110.96; 5.3924768; 338.04247144268
111.98; 5.3993195; 343.53874565286
112.99; 5.3924285; 349.02800512956
114.01; 5.3715042; 354.4959646554
115.03; 5.3380782; 359.92989793405
116.05; 5.2956365; 365.32062738892
117.07; 5.2494039; 370.66429403444
118.08; 5.2057242; 375.96349663752
119.10; 5.1711029; 381.22745627953
120.12; 5.151095; 386.4710487502
121.14; 5.1492766; 391.71279012886
122.15; 5.1665162; 396.97208068789
123.17; 5.2006807; 402.26614923574
124.19; 5.2468106; 407.6071760347
125.21; 5.2977212; 413.00002763765
126.23; 5.3449414; 418.44094737186
127.24; 5.3798831; 423.91743618612
128.26; 5.3951158; 429.40943128683
129.28; 5.3855888; 434.89172831253
130.30; 5.3495965; 440.33738668046
131.32; 5.2892625; 445.72162770157
132.33; 5.2103518; 451.02554103388
133.35; 5.1213362; 456.23884028392
134.37; 5.0318269; 461.36102291376
135.39; 4.9506871; 466.40060874134
136.41; 4.8842783; 471.37259325275
137.42; 4.8353059; 476.29472597408
138.44; 4.8025877; 481.18355304403
139.46; 4.7818042; 486.05122335135
140.48; 4.7669889; 490.9038123826
141.50; 4.7522906; 495.74143914583
142.51; 4.7334615; 500.55989865321
143.53; 4.7086439; 505.35309494142
144.55; 4.6782832; 510.11538538998
145.57; 4.6443036; 514.84308603616
146.59; 4.6089256; 519.53477345698
147.60; 4.5735963; 524.19049708281
148.62; 4.538413; 528.8104057131
149.64; 4.5022058; 533.3934569442
150.66; 4.4631747; 537.93677616344
151.68; 4.4197842; 542.43592570806
152.69; 4.3715459; 546.88597078603
153.71; 4.3194029; 551.28293659436
154.73; 4.2656098; 555.62514335001
155.75; 4.2132017; 559.91400088509
156.77; 4.1652803; 564.15407649668
157.78; 4.1243683; 568.35250543113
158.80; 4.0920001; 572.51798499813
159.82; 4.068582; 576.65962586124
160.84; 4.0534325; 580.78584526834
161.86; 4.0448741; 584.90335251578
162.87; 4.0402855; 589.01618880933
163.89; 4.0361368; 593.12480192729
164.91; 4.0281221; 597.22525639125
165.93; 4.0115417; 601.30883275497
166.94; 3.9820153; 605.36235253321
167.96; 3.9364546; 609.36949344091
168.98; 3.8740537; 613.3131129062
170.00; 3.7969472; 617.17824129917
171.02; 3.7102077; 620.95507262135
172.03; 3.6210242; 624.6411190053
173.05; 3.5371729; 628.24180839846
174.07; 3.4651646; 631.7691964113
175.09; 3.4086212; 635.23902571896
176.11; 3.3674175; 638.66691145073
177.12; 3.3379078; 642.06475754635
178.14; 3.3142107; 645.43848102949
179.16; 3.2901632; 648.78772514705
180.18; 3.2613124; 652.10760043305
181.20; 3.2262888; 655.39182321679
182.21; 3.1871065; 658.63616005991
183.23; 3.1483066; 661.84100028525
184.25; 3.1152593; 665.01219985652
185.27; 3.092227; 668.15995351506
186.29; 3.0808614; 671.29613745547
187.30; 3.0796389; 674.43107695272
188.32; 3.084391; 677.57085387276
189.34; 3.089696; 680.71603112509
190.36; 3.0906057; 683.86213431521
191.38; 3.0840856; 687.00160035254
192.39; 3.0696882; 690.12641042713
193.41; 3.0492765; 693.23044233273
194.43; 3.0259756; 696.31075494129
195.45; 3.0027955; 699.36747116988
196.47; 2.9814642; 702.40247302457
197.48; 2.9618966; 705.41755591335
198.50; 2.9424615; 708.41285474299
199.52; 2.920899; 711.38620383644
200.54; 2.8955; 714.33369790546
201.56; 2.8660764; 717.25124000909
202.57; 2.8343406; 720.13647642953
203.59; 2.8035469; 722.99036617341
204.61; 2.7775203; 725.81776203349
205.63; 2.7594232; 728.62673576429
206.65; 2.7506997; 731.42682938484
207.66; 2.7505774; 734.22679853269
208.68; 2.7563092; 737.032602345
209.70; 2.7640929; 739.84632959254
210.72; 2.7703847; 742.6664616542
211.74; 2.7732005; 745.48946012777
212.75; 2.7730108; 748.31226547509
213.77; 2.7729674; 751.13502665352
214.79; 2.7784056; 753.96332368954
215.81; 2.7957726; 756.80929951166
216.82; 2.8312822; 759.69142260772
217.84; 2.8896446; 762.63295615879
218.86; 2.9731607; 765.65950550468
219.88; 3.0813406; 768.79617727711
220.90; 3.2110477; 772.06488522513
221.91; 3.3570418; 775.48220888935
222.93; 3.5127323; 779.05801875645
223.95; 3.6709633; 782.79490099691
224.97; 3.8247199; 786.68830085583
225.99; 3.9677217; 790.72727031687
227.00; 4.0949231; 794.89572536271
228.02; 4.2029425; 799.17413943805
229.04; 4.2903939; 803.54157525016
230.06; 4.3580387; 807.97787063615
231.08; 4.4086378; 812.46567371784
232.09; 4.4464142; 816.99193148701
233.11; 4.4761372; 821.54844597662
234.13; 4.5019797; 826.13126708527
235.15; 4.5264308; 830.7389783444
236.17; 4.5496006; 835.37027546492
237.18; 4.5691948; 840.02151859247
238.20; 4.5812555; 844.68503896986
239.22; 4.5815207; 849.34882932613
240.24; 4.567021; 853.99785959762
241.26; 4.5374038; 858.61674088457
242.27; 4.4955115; 863.19297763531
243.29; 4.4469427; 867.71977344819
244.31; 4.3986458; 872.19740509584
245.33; 4.3569227; 876.63256443815
246.35; 4.3254496; 881.03568545878
247.36; 4.3039627; 885.41693372297
248.38; 4.2880878; 889.78202201413
249.40; 4.2704528; 894.12915871057
250.42; 4.2428231; 898.44816952804
251.44; 4.1986597; 902.72222387641
252.45; 4.1353412; 906.93182281073
253.47; 4.0553594; 911.06000371007
254.49; 3.9660868; 915.09730895689
255.51; 3.8781389; 919.04508701309
256.53; 3.8027754; 922.91614822849
257.54; 3.7490832; 926.73255314487
258.56; 3.7217559; 930.52114005661
259.58; 3.7201052; 934.30804659982
260.60; 3.7385666; 938.11374611509
261.61; 3.7685045; 941.94992111722
262.63; 3.8007283; 945.81889850934
263.65; 3.8279321; 949.71556816852
264.67; 3.8463232; 953.63095921486
265.69; 3.8559977; 957.55619849445
266.70; 3.8600513; 961.48556412269
267.72; 3.862835; 965.41776347551
268.74; 3.868031; 969.35525214657
269.76; 3.877243; 973.30211825789
270.78; 3.8895703; 977.26153296416
271.79; 3.9022454; 981.23385041676
272.81; 3.9120171; 985.21611497174
273.83; 3.9166918; 989.20313816423
274.85; 3.9162173; 993.18967837731
275.87; 3.9128916; 997.17283319196
276.88; 3.9106359; 1001.1536918255
277.90; 3.9136339; 1005.1376022892
278.92; 3.9248707; 1009.1329513131
279.94; 3.9451226; 1013.1489159177
280.96; 3.9727554; 1017.1930095041
281.97; 4.0043712; 1021.2692865988
282.99; 4.0360344; 1025.3777954268
284.01; 4.0646199; 1029.5154030433
285.03; 4.0888255; 1033.6776509673
286.05; 4.1095526; 1037.8609981397
287.06; 4.1296044; 1042.0647571832
288.08; 4.1528778; 1046.2922075887
289.10; 4.1833441; 1050.5506713509
290.12; 4.2241088; 1054.8506318064
291.14; 4.276738; 1059.2041665252
292.15; 4.3409042; 1063.623019707
293.17; 4.4143083; 1068.1165950351
294.19; 4.4928051; 1072.690076781
295.21; 4.5706933; 1077.3428453695
296.23; 4.6411754; 1082.0673616389
297.24; 4.6970174; 1086.848722642
298.26; 4.7314034; 1091.6650870849
299.28; 4.7389036; 1096.4890864942
300.30; 4.716395; 1101.2901730808
301.32; 4.6637269; 1106.0376458579
302.33; 4.5839502; 1110.7039094016
303.35; 4.4830088; 1115.2674188788
304.37; 4.3689147; 1119.7147855118
305.39; 4.2505418; 1124.041653603
306.41; 4.1362498; 1128.2521773635
307.42; 4.0325852; 1132.3571750948
308.44; 3.9432934; 1136.3712776431
309.46; 3.8688371; 1140.3095868869
310.48; 3.8065522; 1144.1844927923
311.49; 3.7514766; 1148.0033340389
312.51; 3.6977578; 1151.7674919412
313.53; 3.6403932; 1155.473255159
314.55; 3.57691; 1159.1143951674
315.57; 3.5085232; 1162.6859203742
316.58; 3.4403609; 1166.188059265
317.60; 3.3805508; 1169.6293141526
318.62; 3.3382875; 1173.0275467936
319.64; 3.3213414; 1176.4085290448
320.66; 3.3337181; 1179.8021101825
321.67; 3.3741997; 1183.2368999089
322.69; 3.4362784; 1186.7348830631
323.71; 3.5095626; 1190.3074663747
324.73; 3.5822588; 1193.9540512122
325.75; 3.6439655; 1197.6634508512
326.76; 3.6879169; 1201.4175911485
327.78; 3.7120126; 1205.1962598325
328.80; 3.7184061; 1208.9814368251
329.82; 3.7119218; 1212.7600130803
330.84; 3.6979462; 1216.5243626915
331.85; 3.6805546; 1220.2710084828
332.87; 3.6614658; 1223.998222634
333.89; 3.640042; 1227.7036283319
334.91; 3.6141509; 1231.3826780146
335.93; 3.5814183; 1235.0284072642
336.94; 3.5403469; 1238.6323276589
337.96; 3.4909329; 1242.1859467287
338.98; 3.4346856; 1245.6823084335
340.00; 3.3742147; 1249.1171133968
341.02; 3.3126736; 1252.4892721609
342.03; 3.2533076; 1255.8009989243
343.05; 3.1992033; 1259.0576498345
344.07; 3.1531641; 1262.2674347807
345.09; 3.1175545; 1265.4409707326
346.11; 3.0939997; 1268.5905288806
347.12; 3.0829673; 1271.7288565232
348.14; 3.0834131; 1274.8676380429
349.16; 3.0927356; 1278.0159094376
350.18; 3.1072104; 1281.17891553
351.20; 3.122884; 1284.3578766877
352.21; 3.1366782; 1287.5508796914
353.23; 3.1473113; 1290.7547068297
354.25; 3.1556614; 1293.9670340012
355.27; 3.1643821; 1297.188238439
356.28; 3.1768776; 1300.422162719
357.30; 3.1960085; 1303.675561417
358.32; 3.2230281; 1306.9564649802
359.34; 3.25717; 1310.2721234844
360.36; 3.2960482; 1313.627358328
361.37; 3.3367012; 1317.0239761685
362.39; 3.3768381; 1320.4614516015
363.41; 3.4157567; 1323.9385445351
364.43; 3.4545306; 1327.4551076188
365.45; 3.495357; 1331.013230221
366.46; 3.5403056; 1334.6171085713
367.48; 3.5899625; 1338.2715355127
368.50; 3.6425288; 1341.9794726433
369.52; 3.6937803; 1345.7395816143
370.54; 3.7379855; 1349.5446895245
371.55; 3.7695269; 1353.3819052971
372.57; 3.7847137; 1357.2345805765
373.59; 3.7831891; 1361.0857037977
374.61; 3.7684624; 1364.9218358938
375.63; 3.7473687; 1368.7364955349
376.64; 3.7285857; 1372.5320349275
377.66; 3.720612; 1376.3194573455
378.68; 3.7297447; 1380.1161764676
379.70; 3.7585702; 1383.9422387123
380.72; 3.8053138; 1387.8158839108
381.73; 3.8641612; 1391.749433312
382.75; 3.9264302; 1395.7463697733
383.77; 3.9822968; 1399.8001761137
384.79; 4.0227047; 1403.8951158838
385.81; 4.0410836; 1408.0087645964
386.82; 4.0345794; 1412.1157923668
387.84; 4.0045928; 1416.1922950028
388.86; 3.9565407; 1420.2198827404
389.88; 3.8988741; 1424.1887683756
390.90; 3.8415027; 1428.0992523795
391.91; 3.7939002; 1431.9612790717
392.93; 3.7632581; 1435.7921133819
393.95; 3.7530999; 1439.6126071605
394.97; 3.7627219; 1443.4428956838
395.99; 3.7876664; 1447.2985766377
397.00; 3.8211851; 1451.1883781448
398.02; 3.856355; 1455.1139810984
399.04; 3.8882765; 1459.0720787986
400.06; 3.9156927; 1463.0580850317
401.07; 3.9414907; 1467.0703524728
402.09; 3.9718649; 1471.1135395869
403.11; 4.0143544; 1475.1999791258
404.13; 4.0753599; 1479.3485196281
405.15; 4.1579594; 1483.581142877
406.16; 4.260764; 1487.9184167209
407.18; 4.378207; 1492.3752424857
408.20; 4.5021522; 1496.958239194
409.22; 4.6242333; 1501.6655090984
410.24; 4.7380912; 1506.4886814917
411.25; 4.8407674; 1511.416373804
412.27; 4.9328951; 1516.4378481966
413.29; 5.0178638; 1521.5458169808
414.31; 5.1005537; 1526.7379605735
415.33; 5.1863698; 1532.0174612227
416.34; 5.2810528; 1537.3933451065
417.36; 5.3912351; 1542.8813898311
418.38; 5.5251628; 1548.5057670916
419.40; 5.6927205; 1554.3007108674
420.42; 5.904051; 1560.3107799799
421.43; 6.1666489; 1566.5881624181
422.45; 6.4816129; 1573.1861646359
423.47; 6.8404009; 1580.1493975635
424.49; 7.2236122; 1587.5027230391
425.51; 7.6028571; 1595.2421035082
426.52; 7.9457701; 1603.330554613
427.54; 8.2230319; 1611.7012462606
428.56; 8.4153659; 1620.2677256229
429.58; 8.5182544; 1628.9389410663
430.60; 8.5427307; 1637.6350723156
431.61; 8.5118574; 1646.2997757974
432.63; 8.4539501; 1654.9055322156
433.65; 8.3947049; 1663.4509795432
434.67; 8.3507161; 1671.9516481964
435.69; 8.3263213; 1680.4274839442
436.70; 8.3144894; 1688.8912753699
437.72; 8.3010707; 1697.3414071413
438.74; 8.2706639; 1705.7605861014
439.76; 8.212009; 1714.120056885
440.78; 8.1212419; 1722.3871306463
441.79; 8.0023186; 1730.5331456272
442.81; 7.8650026; 1738.5393789341
443.83; 7.7215844; 1746.3996186191
444.85; 7.5837122; 1754.1195103767
445.87; 7.4603707; 1761.7138457767
446.88; 7.3573648; 1769.2033256386
447.90; 7.2780005; 1776.6120160725
448.92; 7.2242598; 1783.9660007877
449.94; 7.1977699; 1791.293019999
450.95; 7.2001804; 1798.6224929519
451.97; 7.2329847; 1805.9853592861
452.99; 7.2971395; 1813.4135323645
454.01; 7.3929026; 1820.9391882019
455.03; 7.5201442; 1828.5943704598
456.04; 7.679082; 1836.4113445344
457.06; 7.8711269; 1844.4238121103
458.08; 8.0994073; 1852.6686592538
459.10; 8.3686258; 1861.1875591603
460.12; 8.6841483; 1870.0276473576
461.13; 9.0505332; 1879.2406995905
462.15; 9.4699802; 1888.8807308253
463.17; 9.9413246; 1899.0005703161
464.19; 10.460168; 1909.6485696711
465.21; 11.020502; 1920.8669651678
466.22; 11.617777; 1932.6933603911
467.24; 12.252835; 1945.1662173745
468.26; 12.935687; 1958.3341880927
469.28; 13.68785; 1972.2678283122
470.30; 14.54219; 1987.0711500967
471.31; 15.539913; 2002.8901113607
472.33; 16.725469; 2019.9159169145
473.35; 18.141287; 2038.3829643999
474.37; 19.824977; 2058.5639357127
475.39; 21.811334; 2080.7669322166
476.40; 24.140054; 2105.3404654199
477.42; 26.867634; 2132.6905570477
478.44; 30.079238; 2163.3099228725
479.46; 33.894469; 2197.8130298852
480.48; 38.460906; 2236.9645726516
481.49; 43.931566; 2281.6850110923
482.51; 50.426873; 2333.0173919467
483.53; 57.987099; 2392.0457567854
484.55; 66.525963; 2459.7663161468
485.57; 75.798357; 2536.9257726298
486.58; 85.393889; 2623.8530670416
487.60; 94.762966; 2720.3176768458
488.62; 103.27466; 2825.4468226148
489.64; 110.29758; 2937.7249975125
490.66; 115.28871; 3055.0839297446
491.67; 117.87255; 3175.073094429
492.69; 117.89458; 3295.0846861078
493.71; 115.43891; 3412.5965101677
494.73; 110.80762; 3525.3938875018
495.74; 104.46774; 3631.737536657
496.76; 96.977631; 3730.456580669
497.78; 88.907961; 3820.9610484005
498.80; 80.771438; 3903.1828870201
499.82; 72.972334; 3977.4655743104
500.83; 65.781363; 4044.42816301
501.85; 59.336025; 4104.8296761219
502.87; 53.66181; 4159.455083273
503.89; 48.706569; 4209.0362687619
504.91; 44.379196; 4254.2123755357
505.92; 40.584346; 4295.5254887686
506.94; 37.246934; 4333.4412600433
507.96; 34.323125; 4368.3807205949
508.98; 31.797852; 4400.7495613855
510.00; 29.671937; 4430.9543128533
511.01; 27.944161; 4459.4002630839
512.03; 26.594419; 4486.4722339801
513.05; 25.573426; 4512.5048777891
514.07; 24.802251; 4537.7524989007
515.09; 24.181923; 4562.3686529078
516.10; 23.610281; 4586.4028999554
517.12; 23.001065; 4609.8169914651
518.14; 22.299608; 4632.5170299334
519.16; 21.490604; 4654.3935378957
520.18; 20.595928; 4675.3593041223
521.19; 19.663509; 4695.3759075969
522.21; 18.750894; 4714.4635084819
523.23; 17.908472; 4732.6935603884
524.25; 17.167055; 4750.1688820061
525.27; 16.532805; 4766.9985636723
526.28; 15.989988; 4783.2756809734
527.30; 15.50965; 4799.0638358412
528.32; 15.060743; 4814.395022326
529.34; 14.619963; 4829.2775133097
530.36; 14.177523; 4843.7096202221
531.37; 13.73775; 4857.6940564933
532.39; 13.315179; 4871.2483338002
533.41; 12.928139; 4884.4086214491
534.43; 12.592199; 4897.2269368512
535.45; 12.31546; 4909.7635435035
536.46; 12.096686; 4922.0774480547
537.48; 11.926189; 4934.2177935357
538.50; 11.788554; 4946.218033005
539.52; 11.666033; 4958.0935509435
540.54; 11.541577; 4969.8423779167
541.55; 11.401007; 4981.4481108057
542.57; 11.234277; 4992.8841200234
543.59; 11.036093; 5004.1183868762
544.61; 10.80615; 5015.1185809319
545.62; 10.549045; 5025.8570530714
546.64; 10.273724; 5036.315260784
547.66; 9.9922242; 5046.4869138231
548.68; 9.717656; 5056.3790682571
549.70; 9.4617119; 5066.0106826548
550.71; 9.2323174; 5075.4087834086
551.73; 9.0321911; 5084.6031641596
552.75; 8.8588948; 5093.6211367777
553.77; 8.706476; 5102.4839536052
554.79; 8.5682002; 5111.2060117044
555.80; 8.4394212; 5119.7969783345
556.82; 8.3195532; 5128.2659244659
557.84; 8.2124847; 5136.6258794823
558.86; 8.1254644; 5144.8972515774
559.88; 8.0672021; 5153.10931521
560.89; 8.0463166; 5161.3001182455
561.91; 8.0710925; 5169.516142128
562.93; 8.1507998; 5177.8133046416
563.95; 8.2978473; 5186.2601551699
564.97; 8.5292481; 5194.9425617045
565.98; 8.8656896; 5203.9674511635
567.00; 9.3271422; 5213.4620794767
568.02; 9.9252723; 5223.5655784215
569.04; 10.654482; 5234.41138122
570.06; 11.484544; 5246.1021514482
571.07; 12.357991; 5258.6820530909
572.09; 13.194415; 5272.1133981017
573.11; 13.901882; 5286.2649145616
574.13; 14.393374; 5300.9167480031
575.15; 14.604313; 5315.7833087127
576.16; 14.506567; 5330.5503680769
577.18; 14.11502; 5344.918849667
578.20; 13.484818; 5358.6458129321
579.22; 12.699942; 5371.5738057305
580.24; 11.856137; 5383.6428416224
581.25; 11.042639; 5394.8837720086
582.27; 10.327195; 5405.396410949
583.29; 9.747684; 5415.3191326239
584.31; 9.311616; 5424.7979558909
