#Wavenumber (cm^-1); Spectrum (K*cm*km*mol^-1); Integral (K*km*mol^-1)
0.00; 0.38677153; 0.39371673071801
1.02; 0.40083809; 0.80175260999148
2.04; 0.44172152; 1.2514060557498
3.05; 0.50580054; 1.7662891742819
4.07; 0.58804481; 2.3648934141953
5.09; 0.6832382; 3.0604004227784
6.11; 0.78718599; 3.8617217871038
7.13; 0.89754588; 4.7753847670907
8.14; 1.0140109; 5.80760406891
9.16; 1.137758; 6.9657926442618
10.18; 1.2703219; 8.2589255445264
11.20; 1.4122766; 9.6965621768903
12.22; 1.5622318; 11.286846707124
13.23; 1.7165965; 13.034267838506
14.25; 1.8703257; 14.938178699587
15.27; 2.0185033; 16.992927955551
16.29; 2.158251; 19.189934296024
17.31; 2.2902386; 21.521298376314
18.32; 2.419115; 23.983853034936
19.34; 2.552502; 26.582189957631
20.36; 2.6987104; 29.329360644418
21.38; 2.86385; 32.244636313199
22.40; 3.0493242; 35.348716813057
23.41; 3.2506537; 38.657741982918
24.43; 3.4581599; 42.177999551313
25.45; 3.6593857; 45.903096256895
26.47; 3.8424719; 49.81456680232
27.48; 3.9993277; 53.885709855316
28.50; 4.1274822; 58.087308590378
29.52; 4.2299985; 62.393264487313
30.54; 4.3135891; 66.784312030327
31.56; 4.385781; 71.248847835353
32.57; 4.4523573; 75.781155456006
33.59; 4.5161663; 80.378417831773
34.61; 4.577782; 85.038402352801
35.63; 4.6376629; 89.759343090234
36.65; 4.6987352; 94.542452807054
37.66; 4.7680471; 99.396118981995
38.68; 4.856442; 104.33976734168
39.70; 4.9759903; 109.40511072658
40.72; 5.1358903; 114.63322544089
41.74; 5.338306; 120.06739061752
42.75; 5.5758197; 125.74333450709
43.77; 5.8317274; 131.67978130517
44.79; 6.0834383; 137.8724589526
45.81; 6.3081192; 144.29385212317
46.83; 6.4888689; 150.89924062345
47.84; 6.6194554; 157.63756057859
48.86; 6.7060922; 164.46407303534
49.88; 6.7656971; 171.35126075813
50.90; 6.8212208; 178.29496922491
51.92; 6.8955229; 185.31431397849
52.93; 7.0056269; 192.44573985537
53.95; 7.1589107; 199.73320206071
54.97; 7.3520434; 207.21726500535
55.99; 7.5725742; 214.92581879673
57.01; 7.8023469; 222.86827122352
58.02; 8.0215769; 231.03389033633
59.04; 8.2125364; 239.39389799652
60.06; 8.3622048; 247.90626164529
61.08; 8.4637366; 256.52198027077
62.10; 8.5169536; 265.19187149157
63.11; 8.5281756; 273.87318620939
64.13; 8.509587; 282.53557856512
65.15; 8.4781314; 291.1659504486
66.17; 8.4537915; 299.77154539401
67.19; 8.4571609; 308.380570283
68.20; 8.5064419; 317.03976105597
69.22; 8.6143158; 325.80876285617
70.24; 8.7853693; 334.75188968127
71.26; 9.0147839; 343.92855066441
72.27; 9.2887675; 353.38411514514
73.29; 9.5867685; 363.14303178899
74.31; 9.8850249; 373.20556055401
75.33; 10.160625; 383.54863850677
76.35; 10.395132; 394.13043463751
77.36; 10.576987; 404.89735144572
78.38; 10.702305; 415.7918362153
79.40; 10.774158; 426.75946430843
80.42; 10.80086; 437.75427339669
81.44; 10.79395; 448.74204864099
82.45; 10.766533; 459.70191458973
83.47; 10.732315; 470.62694828879
84.49; 10.705295; 481.5244767417
85.51; 10.699697; 492.41630629465
86.53; 10.729568; 503.33854383789
87.54; 10.807571; 514.3401851189
88.56; 10.942842; 525.47952591268
89.58; 11.13831; 536.81784456915
90.60; 11.388326; 548.41066871515
91.62; 11.677667; 560.29802952872
92.63; 11.982828; 572.49603131587
93.65; 12.275936; 584.99240431288
94.67; 12.530761; 597.7481777917
95.69; 12.729432; 610.70618984503
96.71; 12.867894; 623.80515112903
97.72; 12.958153; 636.99599218453
98.74; 13.026049; 650.25594796437
99.76; 13.104574; 663.59583901637
100.78; 13.2242; 677.05750408529
101.80; 13.402859; 690.70103590945
102.81; 13.638677; 704.58462053612
103.83; 13.908014; 718.74237824905
104.85; 14.169902; 733.16672679207
105.87; 14.376052; 747.80092691405
106.89; 14.483745; 762.54475392237
107.90; 14.467885; 777.27243621943
108.92; 14.328565; 791.85829662628
109.94; 14.091791; 806.2031312787
110.96; 13.803082; 820.25407301882
111.98; 13.515854; 834.01262920153
112.99; 13.278069; 847.52913062558
114.01; 13.121076; 860.88581976363
115.03; 13.053732; 874.17395552311
116.05; 13.063122; 887.47165027819
117.07; 13.121094; 900.82835807979
118.08; 13.194121; 914.25940372954
119.10; 13.253242; 927.75063180307
120.12; 13.281175; 941.27029524084
121.14; 13.27493; 954.78360117451
122.15; 13.243854; 968.26527325534
123.17; 13.204478; 981.70686162013
124.19; 13.17424; 995.11766894456
125.21; 13.166152; 1008.5202439955
126.23; 13.185745; 1021.9427636191
127.24; 13.230648; 1035.4109920353
128.26; 13.292311; 1048.941991356
129.28; 13.358882; 1062.540757184
130.30; 13.418224; 1076.1999305566
131.32; 13.460386; 1089.9020229286
132.33; 13.479218; 1103.623285145
133.35; 13.473132; 1117.3383526187
134.37; 13.445134; 1131.0249188018
135.39; 13.402204; 1144.6677841683
136.41; 13.354094; 1158.261675925
137.42; 13.311609; 1171.81231971
138.44; 13.284607; 1185.3354766133
139.46; 13.280122; 1198.8540681715
140.48; 13.301087; 1212.3940012389
141.50; 13.346024; 1225.9796782268
142.51; 13.409766; 1239.6302418582
143.53; 13.484892; 1253.3572796103
144.55; 13.563273; 1267.1641058881
145.57; 13.637124; 1281.0461095207
146.59; 13.699197; 1294.9913013829
147.60; 13.742246; 1308.9803145393
148.62; 13.758302; 1322.9856720139
149.64; 13.738519; 1336.9708919142
150.66; 13.674132; 1350.8905683055
151.68; 13.558583; 1364.6926202801
152.69; 13.390259; 1378.3233258822
153.71; 13.17482; 1391.7347242915
154.73; 12.926047; 1404.8928822007
155.75; 12.664548; 1417.7848451279
156.77; 12.414388; 1430.4221561104
157.78; 12.198455; 1442.8396565098
158.80; 12.033859; 1455.0896058265
159.82; 11.928682; 1467.2324891168
160.84; 11.880911; 1479.3267435481
161.86; 11.879686; 1491.41975105
162.87; 11.908252; 1503.541837631
163.89; 11.947611; 1515.7039899435
164.91; 11.979858; 1527.8989683264
165.93; 11.990537; 1540.1048177562
166.94; 11.96984; 1552.2895984256
167.96; 11.912863; 1564.4163793878
168.98; 11.819295; 1576.447912039
170.00; 11.692799; 1588.3506764607
171.02; 11.540161; 1600.0980618824
172.03; 11.370143; 1611.6723764911
173.05; 11.192024; 1623.0653744497
174.07; 11.014059; 1634.2772117092
175.09; 10.84231; 1645.3142152406
176.11; 10.680387; 1656.1863886643
177.12; 10.530388; 1666.9058688483
178.14; 10.394793; 1677.4873198394
179.16; 10.278554; 1687.9504447098
180.18; 10.190229; 1698.3236576304
181.20; 10.141211; 1708.6469733002
182.21; 10.142758; 1718.9718633753
183.23; 10.201458; 1729.3565070713
184.25; 10.3147; 1739.8564267136
185.27; 10.468024; 1750.512423821
186.29; 10.635837; 1761.3392464325
187.30; 10.785896; 1772.3188229824
188.32; 10.886569; 1783.4008799593
189.34; 10.914698; 1794.5115713698
190.36; 10.861533; 1805.5681432136
191.38; 10.734707; 1816.4956113871
192.39; 10.55559; 1827.2407467828
193.41; 10.352969; 1837.7796227052
194.43; 10.155248; 1848.1172272879
195.45; 9.9838061; 1858.2803111219
196.47; 9.8495325; 1868.3067101495
197.48; 9.7532588; 1878.2351067033
198.50; 9.689293; 1888.0983888696
199.52; 9.650211; 1897.9218872209
200.54; 9.6308399; 1907.7256666547
201.56; 9.6300226; 1917.5286141059
202.57; 9.6499225; 1927.3518187655
203.59; 9.6937645; 1937.2196526892
204.61; 9.7634999; 1947.1584742265
205.63; 9.8587037; 1957.1942091873
206.65; 9.9772043; 1967.3505726571
207.66; 10.116933; 1977.6491736052
208.68; 10.277779; 1988.111508683
209.70; 10.462189; 1998.7615658589
210.72; 10.673874; 2009.6271092765
211.74; 10.914971; 2020.7380782877
212.75; 11.1829; 2032.1217875817
213.77; 11.46848; 2043.7962055648
214.79; 11.756467; 2055.7637815936
215.81; 12.02874; 2068.0085200385
216.82; 12.269277; 2080.4981149426
217.84; 12.469278; 2093.1913018578
218.86; 12.630705; 2106.0488146439
219.88; 12.767067; 2119.0451378258
220.90; 12.901226; 2132.1780290793
221.91; 13.060971; 2145.473533544
222.93; 13.273641; 2158.9855271257
223.95; 13.561114; 2172.7901560362
224.97; 13.936037; 2186.9764407861
225.99; 14.399624; 2201.6346361642
227.00; 14.940919; 2216.843846777
228.02; 15.537365; 2232.6602141699
229.04; 16.156639; 2249.1069759812
230.06; 16.759939; 2266.1678711494
231.08; 17.306838; 2283.7854854083
232.09; 17.761409; 2301.8658336568
233.11; 18.098681; 2320.289509597
234.13; 18.309868; 2338.9281646924
235.15; 18.40469; 2357.6633453925
236.17; 18.409564; 2376.4034874617
237.18; 18.361551; 2395.0947539162
238.20; 18.29932; 2413.7226722428
239.22; 18.253474; 2432.303920604
240.24; 18.238969; 2450.8704040794
241.26; 18.251862; 2469.4500120037
242.27; 18.271264; 2488.049370604
243.29; 18.265815; 2506.6431818201
244.31; 18.202599; 2525.1726420536
245.33; 18.055847; 2543.5527153198
246.35; 17.813042; 2561.6856234674
247.36; 17.477104; 2579.4765616323
248.38; 17.064667; 2596.847655797
249.40; 16.601577; 2613.7473447908
250.42; 16.11735; 2630.1541121061
251.44; 15.640172; 2646.0751319245
252.45; 15.193461; 2661.5414197159
253.47; 14.794241; 2676.6013188724
254.49; 14.452928; 2691.3137762041
255.51; 14.173927; 2705.7422220931
256.53; 13.956498; 2719.9493349232
257.54; 13.795671; 2733.9927326848
258.56; 13.683241; 2747.9216815858
259.58; 13.609013; 2761.7750696146
260.60; 13.56235; 2775.5809561792
261.61; 13.533873; 2789.3578552161
262.63; 13.516979; 2803.1175568991
263.65; 13.508747; 2816.8688779737
264.67; 13.509954; 2830.6214281488
265.69; 13.524141; 2844.3884196153
266.70; 13.555921; 2858.187762351
267.72; 13.608981; 2872.0411179766
268.74; 13.684267; 2885.9711117168
269.76; 13.778862; 2899.9973983663
270.78; 13.885892; 2914.1326377041
271.79; 13.995624; 2928.379578681
272.81; 14.097598; 2942.7303254518
273.83; 14.183424; 2957.1684386747
274.85; 14.24953; 2971.67384559
275.87; 14.2991; 2986.2297125855
276.88; 14.342432; 3000.8296895028
277.90; 14.395349; 3015.4835340708
278.92; 14.475821; 3030.2192948983
279.94; 14.599586; 3045.0810439496
280.96; 14.776064; 3060.1224399787
281.97; 15.005882; 3075.3977806396
282.99; 15.28098; 3090.953158827
284.01; 15.587396; 3106.8204555731
285.03; 15.909883; 3123.0160297577
286.05; 16.236744; 3139.5443344521
287.06; 16.563106; 3156.4048617752
288.08; 16.89131; 3173.5994867291
289.10; 17.228148; 3191.1369977352
290.12; 17.579862; 3209.0325390524
291.14; 17.946738; 3227.3015440513
292.15; 18.319327; 3245.9498288982
293.17; 18.677826; 3264.9630496304
294.19; 18.994971; 3284.2991108595
295.21; 19.241574; 3303.8862029106
296.23; 19.392852; 3323.6272892685
297.24; 19.433522; 3343.4097758917
298.26; 19.360119; 3363.1175420391
299.28; 19.180075; 3382.6420304375
300.30; 18.908213; 3401.889775839
301.32; 18.562148; 3420.785241383
302.33; 18.1582; 3439.2695049724
303.35; 17.709061; 3457.2965649453
304.37; 17.223587; 3474.8294335405
305.39; 16.708281; 3491.8377430097
306.41; 16.169514; 3508.29761066
307.42; 15.61544; 3524.193454261
308.44; 15.056889; 3539.5207173879
309.46; 14.507027; 3554.288244816
310.48; 13.980007; 3568.5192883425
311.49; 13.489101; 3582.2506106252
312.51; 13.0448; 3595.5296540696
313.53; 12.653246; 3608.4101127832
314.55; 12.315223; 3620.946478581
315.57; 12.025874; 3633.1882990051
316.58; 11.775299; 3645.1750451806
317.60; 11.550161; 3656.9326105582
318.62; 11.336251; 3668.4724251649
319.64; 11.121694; 3679.7938302147
320.66; 10.9001; 3690.8896614281
321.67; 10.672746; 3701.754055896
322.69; 10.448933; 3712.3906184757
323.71; 10.244054; 3722.8186235805
324.73; 10.075614; 3733.0751640808
325.75; 9.9581552; 3743.2121363983
326.76; 9.8985434; 3753.2884264868
327.78; 9.8930944; 3763.3591697191
328.80; 9.9275423; 3773.4649793582
329.82; 9.9800114; 3783.6242003514
330.84; 10.026227; 3793.830467136
331.85; 10.045515; 3804.0563677468
332.87; 10.025909; 3814.2623104203
333.89; 9.9669876; 3824.4082736891
334.91; 9.8797093; 3834.4653913866
335.93; 9.7833683; 3844.4244381919
336.94; 9.7005203; 3854.299149271
337.96; 9.651207; 3864.1236615717
338.98; 9.6479547; 3873.9448630863
340.00; 9.6928347; 3883.8117505759
341.02; 9.7774294; 3893.764751769
342.03; 9.8858876; 3903.8281587241
343.05; 10.000487; 3914.0082227568
344.07; 10.108349; 3924.2980855596
345.09; 10.207392; 3934.6887702569
346.11; 10.309478; 3945.1833735905
347.12; 10.439196; 3955.8100245215
348.14; 10.627904; 3966.6287717784
349.16; 10.90419; 3977.7287663026
350.18; 11.283471; 3989.214853101
351.20; 11.760269; 4001.1862998946
352.21; 12.306398; 4013.713682274
353.23; 12.876693; 4026.8216002924
354.25; 13.421386; 4040.4839924967
355.27; 13.901645; 4054.6352674318
356.28; 14.30315; 4069.1952566096
357.30; 14.642691; 4084.1008845953
358.32; 14.964821; 4099.3344268898
359.34; 15.328984; 4114.9386713915
360.36; 15.79114; 4131.0133705275
361.37; 16.38618; 4147.6937950443
362.39; 17.117484; 4165.1186547276
363.41; 17.957509; 4183.3986244911
364.43; 18.859244; 4202.5965208957
365.45; 19.774104; 4222.725705702
366.46; 20.669301; 4243.7661625862
367.48; 21.537755; 4265.6906682863
368.50; 22.396558; 4288.489398273
369.52; 23.274571; 4312.1819074658
370.54; 24.194223; 4336.8105820421
371.55; 25.155076; 4362.4173643901
372.57; 26.126193; 4389.0127014024
373.59; 27.050858; 4416.5493075977
374.61; 27.862284; 4444.9119105349
375.63; 28.504404; 4473.9281640208
376.64; 28.949757; 4503.3977669691
377.66; 29.207569; 4533.1298123053
378.68; 29.319058; 4562.9753479341
379.70; 29.342011; 4592.8442494672
380.72; 29.330891; 4622.7018306046
381.73; 29.320146; 4652.5484735258
382.75; 29.316778; 4682.3916888216
383.77; 29.30406; 4712.2219571078
384.79; 29.253582; 4742.0008415717
385.81; 29.139542; 4771.6636378419
386.82; 28.948632; 4801.1320958143
387.84; 28.681379; 4830.3285024017
388.86; 28.344995; 4859.1824837352
389.88; 27.941913; 4887.6261458577
390.90; 27.460373; 4915.5796206671
391.91; 26.872565; 4942.9347324562
392.93; 26.142534; 4969.5467036101
393.95; 25.241477; 4995.2414383915
394.97; 24.164483; 5019.839839352
395.99; 22.941547; 5043.1933444219
397.00; 21.637622; 5065.2195097795
398.02; 20.340571; 5085.9253328472
399.04; 19.140655; 5105.409694056
400.06; 18.108527; 5123.8433926562
401.07; 17.279298; 5141.432972385
402.09; 16.647955; 5158.3798722045
403.11; 16.177046; 5174.8474067499
404.13; 15.813125; 5190.944485223
405.15; 15.50551; 5206.7284256551
406.16; 15.220657; 5222.2223972375
407.18; 14.947736; 5237.4385470309
408.20; 14.694825; 5252.3972446755
409.22; 14.478732; 5267.1359690707
410.24; 14.313561; 5281.7065566183
411.25; 14.202932; 5296.1645288741
412.27; 14.13861; 5310.5570236757
413.29; 14.105267; 5324.9155770435
414.31; 14.08856; 5339.2571234726
415.33; 14.082614; 5353.5926164797
416.34; 14.093732; 5367.9394271599
417.36; 14.13913; 5382.3324518315
418.38; 14.241739; 5396.8299277837
419.40; 14.423633; 5411.5125637402
420.42; 14.700851; 5426.4773959086
421.43; 15.081307; 5441.829515376
422.45; 15.565828; 5457.6748565998
423.47; 16.150955; 5474.1158316887
424.49; 16.831569; 5491.2496426389
425.51; 17.601947; 5509.167665197
426.52; 18.454997; 5527.9540562156
427.54; 19.380608; 5547.6826785894
428.56; 20.364543; 5568.4129045797
429.58; 21.388936; 5590.1859183858
430.60; 22.434328; 5613.0230963449
431.61; 23.482061; 5636.9268215146
432.63; 24.515262; 5661.8823003477
433.65; 25.517101; 5687.857608325
434.67; 26.466352; 5714.7992125757
435.69; 27.33192; 5742.6219277477
436.70; 28.069199; 5771.1951612464
437.72; 28.621118; 5800.3302247051
438.74; 28.925423; 5829.7750573975
439.76; 28.927448; 5859.2219507349
440.78; 28.595243; 5888.3306738667
441.79; 27.93241; 5916.7646619855
442.81; 26.984021; 5944.2332311655
443.83; 25.832734; 5970.5298391624
444.85; 24.585095; 5995.5564046133
445.87; 23.351106; 6019.3268228176
446.88; 22.222325; 6041.9481911762
447.90; 21.254374; 6063.5842267825
448.92; 20.45848; 6084.4100761482
449.94; 19.804076; 6104.5697710174
450.95; 19.231339; 6124.1464442775
451.97; 18.669862; 6143.1515583437
452.99; 18.058244; 6161.5340718573
454.01; 17.359477; 6179.2052701873
455.03; 16.56854; 6196.0713290249
456.04; 15.710971; 6212.064419057
457.06; 14.833618; 6227.1644025851
458.08; 13.990719; 6241.4063503732
459.10; 13.229303; 6254.8732096914
460.12; 12.577783; 6267.6768496581
461.13; 12.04038; 6279.9334368472
462.15; 11.598366; 6291.7400725613
463.17; 11.217249; 6303.1587475882
464.19; 10.857576; 6314.2112917902
465.21; 10.486221; 6324.8858118226
466.22; 10.085079; 6335.1519865949
467.24; 9.6549888; 6344.9803485323
468.26; 9.2140847; 6354.3598891595
469.28; 8.7913995; 6363.3091544693
470.30; 8.4178338; 6371.8781459984
471.31; 8.1172388; 6380.14114478
472.33; 7.9001658; 6388.1831726112
473.35; 7.7618749; 6396.0844263231
474.37; 7.6848021; 6403.9072232126
475.39; 7.6443158; 6411.6888067984
476.40; 7.6156983; 6419.4412590533
477.42; 7.580124; 6427.1574981688
478.44; 7.5279839; 6434.8206609791
479.46; 7.4589655; 6442.4135660283
480.48; 7.3794221; 6449.925499338
481.49; 7.2983682; 6457.3549231802
482.51; 7.2236555; 6464.7082927899
483.53; 7.1595298; 6471.9963851477
484.55; 7.1060366; 6479.2300238095
485.57; 7.0599866; 6486.4167855585
486.58; 7.016684; 6493.5594671189
487.60; 6.9715463; 6500.6562003697
488.62; 6.9210399; 6507.7015202872
489.64; 6.8628456; 6514.6876009403
490.66; 6.7955881; 6521.605216371
491.67; 6.7186343; 6528.4444961686
492.69; 6.6323257; 6535.1959175439
493.71; 6.5386615; 6541.8519928391
494.73; 6.4420815; 6548.4097538163
495.74; 6.3498006; 6554.8735768472
496.76; 6.2712303; 6561.2574186475
497.78; 6.216353; 6567.5853977549
498.80; 6.1933667; 6573.8899778083
499.82; 6.2062827; 6580.2077058185
500.83; 6.2532945; 6586.5732897919
501.85; 6.3265624; 6593.0134572831
502.87; 6.4136407; 6599.5422667143
503.89; 6.5002532; 6606.1592439934
504.91; 6.5736841; 6612.8509706917
505.92; 6.6258404; 6619.5957903107
506.94; 6.6551293; 6626.3704247654
507.96; 6.6666299; 6633.156766314
508.98; 6.670527; 6639.9470749657
510.00; 6.6792454; 6646.7462585723
511.01; 6.7040537; 6653.570695955
512.03; 6.7520146; 6660.4439554105
513.05; 6.8240331; 6667.3905266269
514.07; 6.914456; 6674.4291444394
515.09; 7.01229; 6681.5673530504
516.10; 7.1037404; 6688.7986542544
517.12; 7.1754933; 6696.1029967539
518.14; 7.2180242; 6703.4506339649
519.16; 7.2282223; 6710.8086523728
520.18; 7.2107483; 6718.148883022
521.19; 7.1777836; 6725.4555570101
522.21; 7.1471218; 6732.7310186078
523.23; 7.1388836; 6739.9980940441
524.25; 7.1714397; 6747.2983101704
525.27; 7.2573583; 6754.6859877127
526.28; 7.4002843; 6762.2191577724
527.30; 7.5935583; 6769.9490724341
528.32; 7.8210693; 6777.910583526
529.34; 8.0603422; 6786.1156640838
530.36; 8.2872838; 6794.5517613377
531.37; 8.4815069; 6803.1855693832
532.39; 8.6308837; 6811.9714365829
533.41; 8.7340766; 6820.8623496711
534.43; 8.8002914; 6829.8206665848
535.45; 8.8462847; 6838.8258027222
536.46; 8.8915151; 6847.8769814128
537.48; 8.9529678; 6856.9907163268
538.50; 9.0413495; 6866.1944199282
539.52; 9.1599243; 6875.5188275986
540.54; 9.3063428; 6884.9922830249
541.55; 9.4766843; 6894.639138667
542.57; 9.670019; 6904.4828007189
543.59; 9.8914799; 6914.5519003895
544.61; 10.152309; 6924.8865124108
545.62; 10.466514; 6935.540971961
546.64; 10.845237; 6946.580955058
547.66; 11.291079; 6958.0747864508
548.68; 11.794992; 6970.0815796712
549.70; 12.33757; 6982.6406931599
550.71; 12.894935; 6995.767180439
551.73; 13.447448; 7009.456101933
552.75; 13.98798; 7023.6952620378
553.77; 14.526267; 7038.4823755092
554.79; 15.087091; 7053.8403833102
555.80; 15.702478; 7069.8248287588
556.82; 16.40083; 7086.5201658525
557.84; 17.19775; 7104.0267335031
558.86; 18.093426; 7122.445060624
559.88; 19.079352; 7141.8670175379
560.89; 20.153583; 7162.3824955941
561.91; 21.339779; 7184.1054697168
562.93; 22.702626; 7207.2157628819
563.95; 24.352096; 7232.0051453605
564.97; 26.431745; 7258.9115214524
565.98; 29.091207; 7288.5251152043
567.00; 32.44855; 7321.5563390221
568.02; 36.552273; 7358.7649756355
569.04; 41.353814; 7400.8613733203
570.06; 46.698988; 7448.3989278695
571.07; 52.341504; 7501.680320167
572.09; 57.975338; 7560.6967127134
573.11; 63.277526; 7625.11050358
574.13; 67.950519; 7694.2811996443
575.15; 71.754434; 7767.3241170297
576.16; 74.523622; 7843.185948111
577.18; 76.167421; 7920.7210956621
578.20; 76.659708; 7998.7573704523
579.22; 76.024319; 8076.146846969
580.24; 74.322945; 8151.804397698
581.25; 71.649235; 8224.7402272514
582.27; 68.128943; 8294.0925516433
583.29; 63.922632; 8359.1630326429
584.31; 59.226028; 8419.4525730531
585.33; 54.263935; 8474.6909170352
