#Wavenumber (cm^-1); Spectrum (K*cm*km*mol^-1); Integral (K*km*mol^-1)
0.00; 1.1348998; 1.1552790500782
1.02; 1.1930946; 2.3697978898516
2.04; 1.3656053; 3.7599251424601
3.05; 1.6464774; 5.4359681015073
4.07; 2.0266668; 7.4990274925732
5.09; 2.495292; 10.039127097205
6.11; 3.0411604; 13.134897193194
7.13; 3.6542256; 16.854741131531
8.14; 4.3265478; 21.258980045381
9.16; 5.0524264; 26.402132110692
10.18; 5.8276675; 32.334446123514
11.20; 6.6483522; 39.102181755444
12.22; 7.5097883; 46.746822225499
13.23; 8.4063584; 55.30413236588
14.25; 9.3326458; 64.804363071958
15.27; 10.285616; 75.274676045351
16.29; 11.267009; 86.744005246193
17.31; 12.284778; 99.249379525772
18.32; 13.352558; 112.8417075409
19.34; 14.486814; 127.58865893679
20.36; 15.70218; 143.57280049076
21.38; 17.006237; 160.88441598588
22.40; 18.395241; 179.60997752044
23.41; 19.851999; 199.81845562676
24.43; 21.346367; 221.54813654778
25.45; 22.838068; 244.79630419251
26.47; 24.281045; 269.5133602794
27.48; 25.628621; 295.60219046279
28.50; 26.839063; 322.92319825874
29.52; 27.881551; 351.30541433248
30.54; 28.742502; 380.56404154658
31.56; 29.431604; 410.52414480391
32.57; 29.985993; 441.04859147312
33.59; 30.470274; 472.06601557056
34.61; 30.970254; 503.5923981455
35.63; 31.57962; 535.73908842216
36.65; 32.381246; 568.70179968068
37.66; 33.427486; 602.729537475
38.68; 34.725496; 638.0785944115
39.70; 36.233415; 674.96264741925
40.72; 37.870511; 713.51319373656
41.74; 39.540016; 753.76322339983
42.75; 41.158507; 795.66080718433
43.77; 42.682489; 839.10973865833
44.79; 44.12258; 884.02462128661
45.81; 45.539103; 930.38146268508
46.83; 47.018914; 978.24468859901
47.84; 48.640127; 1027.7582389957
48.86; 50.436348; 1079.1002650948
49.88; 52.373351; 1132.4140763563
50.90; 54.347815; 1187.7378069109
51.92; 56.210913; 1244.9580908389
52.93; 57.811236; 1303.8074347436
53.95; 59.044696; 1363.9123874254
54.97; 59.895949; 1424.8838784368
55.99; 60.457689; 1486.4271972111
57.01; 60.920295; 1548.4414289158
58.02; 61.532817; 1611.0791815295
59.04; 62.544576; 1674.7468614367
60.06; 64.142172; 1740.040824473
61.08; 66.39806; 1807.6311842513
62.10; 69.2439; 1878.1184869223
63.11; 72.475617; 1951.8955376074
64.13; 75.789437; 2029.0459140412
65.15; 78.840993; 2109.3026428196
66.17; 81.314471; 2192.0772657701
67.19; 82.986705; 2276.5541505721
68.20; 83.772261; 2361.8306972956
69.22; 83.739606; 2447.0740023323
70.24; 83.094588; 2531.6607072221
71.26; 82.134606; 2615.2701914716
72.27; 81.183588; 2697.9115804688
73.29; 80.522807; 2779.8803228285
74.31; 80.334174; 2861.6570453606
75.33; 80.670228; 2943.7758565042
76.35; 81.458575; 3026.6971705404
77.36; 82.539376; 3110.7186936637
78.38; 83.724943; 3195.9470728125
79.40; 84.863464; 3282.3344166904
80.42; 85.886904; 3369.7635790295
81.44; 86.82737; 3458.1500952026
82.45; 87.795924; 3547.5225576504
83.47; 88.930311; 3638.0497767608
84.49; 90.329181; 3730.0009848333
85.51; 91.996275; 3823.6492232606
86.53; 93.816111; 3919.1499758245
87.54; 95.573021; 4016.439187215
88.56; 97.010831; 4115.1920271173
89.58; 97.915748; 4214.866033331
90.60; 98.195507; 4314.8248225694
91.62; 97.927152; 4414.5104378263
92.63; 97.354822; 4513.6134459338
93.65; 96.83494; 4612.1872363312
94.67; 96.743843; 4710.6682939806
95.69; 97.376043; 4809.7929038679
96.71; 98.86505; 4910.4332588699
97.72; 101.1515; 5013.4011217769
98.74; 104.00748; 5119.2762531312
99.76; 107.10707; 5228.3066320035
100.78; 110.11786; 5340.4018607702
101.80; 112.7824; 5455.2094751791
102.81; 114.9639; 5572.237765438
103.83; 116.64521; 5690.977555273
104.85; 117.88834; 5810.982796767
105.87; 118.77656; 5931.8922111292
106.89; 119.36642; 6053.4020734136
107.90; 119.67099; 6175.2219803593
108.92; 119.68085; 6297.051918415
109.94; 119.41111; 6418.6072737458
110.96; 118.95006; 6539.6932988116
111.98; 118.48171; 6660.3025672233
112.99; 118.26422; 6780.6904386579
114.01; 118.56406; 6901.3835393311
115.03; 119.56597; 7023.0965409619
116.05; 121.29196; 7146.5665177657
117.07; 123.56378; 7272.3491183277
118.08; 126.03034; 7400.6425650701
119.10; 128.25848; 7531.2041609998
120.12; 129.86195; 7663.3980244615
121.14; 130.62648; 7796.3701489915
122.15; 130.58735; 7929.302431842
123.17; 130.02999; 8061.6673502994
124.19; 129.40998; 8193.4011302004
125.21; 129.21649; 8324.9379420216
126.23; 129.8237; 8457.0928614787
127.24; 131.37935; 8590.8313708113
128.26; 133.767; 8727.0004077427
129.28; 136.65299; 8866.1072582705
130.30; 139.60011; 9008.2141503755
131.32; 142.2074; 9152.9751509264
132.33; 144.22785; 9299.7928834912
133.35; 145.62529; 9448.033147097
134.37; 146.55448; 9597.2192860677
135.39; 147.27607; 9747.1399654956
136.41; 148.04017; 9897.8384685195
137.42; 148.98179; 10049.495498695
138.44; 150.06456; 10202.254747322
139.46; 151.09049; 10356.058344358
140.48; 151.76892; 10510.552559717
141.50; 151.81791; 10665.09663682
142.51; 151.06119; 10818.870412933
143.53; 149.48834; 10971.043096399
144.55; 147.2601; 11120.947522528
145.57; 144.66128; 11268.206462484
146.59; 142.02096; 11412.777668061
147.60; 139.6289; 11554.913864515
148.62; 137.67584; 11695.06193194
149.64; 136.23439; 11833.742659921
150.66; 135.28203; 11971.453926831
151.68; 134.75319; 12108.626860684
152.69; 134.59834; 12245.64216652
153.71; 134.82719; 12382.890422841
154.73; 135.51948; 12520.84340344
155.75; 136.79848; 12660.0983502
156.77; 138.7745; 12801.364802876
157.78; 141.47632; 12945.381588766
158.80; 144.79307; 13092.774689862
159.82; 148.44812; 13243.888467737
160.84; 152.01866; 13398.636904619
161.86; 155.00322; 13556.423498014
162.87; 156.925; 13716.16637459
163.89; 157.44712; 13876.44074857
164.91; 156.46896; 14035.719393855
165.93; 154.17369; 14192.661559857
166.94; 151.0078; 14346.380982847
167.96; 147.59064; 14496.621881074
168.98; 144.57316; 14643.791116258
170.00; 142.48205; 14788.831698819
171.02; 141.59351; 14932.967777074
172.03; 141.87505; 15077.39045766
173.05; 143.01527; 15222.973833758
174.07; 144.53398; 15370.103188085
175.09; 145.93919; 15518.662988953
176.11; 146.88051; 15668.181011575
177.12; 147.2483; 15818.073424535
178.14; 147.18545; 15967.9018564
179.16; 147.00817; 16117.549826932
180.18; 147.06411; 16267.254742562
181.20; 147.57876; 16417.483551939
182.21; 148.54617; 16568.697140074
183.23; 149.70498; 16721.090347143
184.25; 150.61116; 16874.406008902
185.27; 150.78465; 17027.898272144
186.29; 149.88103; 17180.47069077
187.30; 147.83046; 17330.955721105
188.32; 144.897; 17478.454617521
189.34; 141.6383; 17622.636299319
190.36; 138.77809; 17763.906405309
191.38; 137.03068; 17903.397725064
192.39; 136.92932; 18042.785868323
193.41; 138.70515; 18183.98172528
194.43; 142.24472; 18328.780710193
195.45; 147.12902; 18478.551701088
196.47; 152.73453; 18634.028865254
197.48; 158.36425; 18795.23683907
198.50; 163.37535; 18961.545891938
199.52; 167.27856; 19131.828251237
200.54; 169.79673; 19304.674000156
201.56; 170.88133; 19478.623815292
202.57; 170.69301; 19652.381937499
203.59; 169.55492; 19824.98153118
204.61; 167.88712; 19995.883374816
205.63; 166.13108; 20164.997648501
206.65; 164.67421; 20332.628889525
207.66; 163.78681; 20499.356791006
208.68; 163.58471; 20665.878966638
209.70; 164.02781; 20832.85220057
210.72; 164.95692; 21000.771231114
211.74; 166.16061; 21169.915559479
212.75; 167.45321; 21340.37570601
213.77; 168.74005; 21512.145796531
214.79; 170.04812; 21685.24744478
215.81; 171.51147; 21859.838718034
216.82; 173.31536; 22036.266278737
217.84; 175.61792; 22215.037744104
218.86; 178.47587; 22396.718480662
219.88; 181.79977; 22581.782803738
220.90; 185.35358; 22770.464751615
221.91; 188.79824; 22962.653207992
222.93; 191.76439; 23157.861085519
223.95; 193.93139; 23355.274869445
224.97; 195.0899; 23553.867972818
225.99; 195.17419; 23752.546879897
227.00; 194.26141; 23950.296608892
228.02; 192.54592; 24146.300042071
229.04; 190.30138; 24340.01863238
230.06; 187.84168; 24531.233359261
231.08; 185.48607; 24720.050175078
232.09; 183.52747; 24906.873220518
233.11; 182.20034; 25092.345305458
234.13; 181.64662; 25277.253728935
235.15; 181.88443; 25462.404229754
236.17; 182.79014; 25648.476708014
237.18; 184.10637; 25835.889051302
238.20; 185.4834; 26024.703153582
239.22; 186.55102; 26214.604043568
240.24; 187.00497; 26404.967036229
241.26; 186.68352; 26595.002805894
242.27; 185.6091; 26783.944859396
243.29; 183.97959; 26971.228143932
244.31; 182.11039; 27156.608664568
245.33; 180.34578; 27340.192882165
246.35; 178.96931; 27522.375917892
247.36; 178.14295; 27703.717749946
248.38; 177.89258; 27884.804717309
249.40; 178.13888; 28066.14240955
250.42; 178.75379; 28248.10605702
251.44; 179.6132; 28430.944539708
252.45; 180.61956; 28614.807457045
253.47; 181.68382; 28799.753745354
254.49; 182.67701; 28985.711056029
255.51; 183.38006; 29172.384044305
256.53; 183.46635; 29359.144868186
257.54; 182.54191; 29544.964654427
258.56; 180.2459; 29728.447199027
259.58; 176.38643; 29908.0009756
260.60; 171.06626; 30082.139042612
261.61; 164.74715; 30249.844531803
262.63; 158.21616; 30410.901750475
263.65; 152.44641; 30566.085618168
264.67; 148.38119; 30717.131264288
265.69; 146.69885; 30866.464359502
266.70; 147.62804; 31016.743336283
267.72; 150.87165; 31170.324167847
268.74; 155.66724; 31328.786701725
269.76; 160.97114; 31492.64837239
270.78; 165.7155; 31661.339603127
271.79; 169.06554; 31833.441027869
272.81; 170.6043; 32007.108845392
273.83; 170.39536; 32180.563967546
274.85; 168.91126; 32352.508343122
275.87; 166.85621; 32522.360764916
276.88; 164.94181; 32690.264408258
277.90; 163.68594; 32856.889634344
278.92; 163.2937; 33023.115569466
279.94; 163.65009; 33189.70430324
280.96; 164.41724; 33357.073954308
281.97; 165.19516; 33525.235501293
282.99; 165.6874; 33693.898124667
284.01; 165.81384; 33862.689454824
285.03; 165.7344; 34031.399920204
286.05; 165.77924; 34200.156033
287.06; 166.31372; 34369.456223309
288.08; 167.58817; 34540.053746175
289.10; 169.62627; 34712.725969896
290.12; 172.19095; 34888.008925781
291.14; 174.83866; 35065.987135766
292.15; 177.04231; 35246.208570475
293.17; 178.34034; 35427.751336331
294.19; 178.46238; 35609.418335403
295.21; 177.39267; 35789.996418117
296.23; 175.35522; 35968.500462446
297.24; 172.732; 36144.334188812
298.26; 169.9463; 36317.332191222
299.28; 167.35117; 36487.688465065
300.30; 165.15675; 36655.810905929
301.32; 163.41285; 36822.158131335
302.33; 162.04344; 36987.111365146
303.35; 160.91371; 37150.914575065
304.37; 159.904; 37313.689947346
305.39; 158.96837; 37475.51288552
306.41; 158.16427; 37636.517291326
307.42; 157.65079; 37796.998994796
308.44; 157.65966; 37957.489727102
309.46; 158.44656; 38118.781491175
310.48; 160.22996; 38281.88867639
311.49; 163.12498; 38447.942867507
312.51; 167.0821; 38618.025231972
313.53; 171.84443; 38792.955444377
314.55; 176.94034; 38973.073071193
315.57; 181.72557; 39158.061861458
316.58; 185.47915; 39346.871629954
317.60; 187.54049; 39537.779760523
318.62; 187.45767; 39728.603574679
319.64; 185.10499; 39917.032464505
320.66; 180.73031; 40101.008116681
321.67; 174.90903; 40279.057958078
322.69; 168.41051; 40450.4925941
323.71; 162.01242; 40615.414250388
324.73; 156.31882; 40774.540062976
325.75; 151.63944; 40928.902469957
326.76; 147.96821; 41079.527724063
327.78; 145.06493; 41227.197566358
328.80; 142.60741; 41372.365750896
329.82; 140.3558; 41515.241896129
330.84; 138.26701; 41655.991742329
331.85; 136.51589; 41794.959022999
332.87; 135.41575; 41932.806413261
333.89; 135.26901; 42070.504432817
334.91; 136.20577; 42209.156026153
335.93; 138.07346; 42349.70885378
336.94; 140.4229; 42492.653309871
337.96; 142.60125; 42637.815233706
338.98; 143.92492; 42784.324588012
340.00; 143.8772; 42930.785365998
341.02; 142.26755; 43075.607593935
342.03; 139.30241; 43217.411435202
343.05; 135.54672; 43355.392148301
344.07; 131.78944; 43489.548110005
345.09; 128.85373; 43620.715644129
346.11; 127.40558; 43750.409026206
347.12; 127.81027; 43880.514369607
348.14; 130.06829; 44012.918278253
349.16; 133.83814; 44149.159730057
350.18; 138.53105; 44290.178361257
351.20; 143.44773; 44436.201964405
352.21; 147.92265; 44586.780837471
353.23; 151.44541; 44740.945733015
354.25; 153.73887; 44897.445267308
355.27; 154.78489; 45055.00960728
356.28; 154.79966; 45212.588976201
357.30; 154.16814; 45369.525487265
358.32; 153.35305; 45525.63226978
359.34; 152.79625; 45681.172263716
360.36; 152.83131; 45836.747942342
361.37; 153.62327; 45993.129802826
362.39; 155.14693; 46151.062686041
363.41; 157.20652; 46311.092136663
364.43; 159.49068; 46473.446762367
365.45; 161.64842; 46637.997880773
366.46; 163.36676; 46804.298191313
367.48; 164.43123; 46971.682084746
368.50; 164.75635; 47139.396937115
369.52; 164.38224; 47306.730964431
370.54; 163.44351; 47473.109400551
371.55; 162.12336; 47638.143986309
372.57; 160.60787; 47801.635869133
373.59; 159.05175; 47963.543682643
374.61; 157.56046; 48123.93343303
375.63; 156.18666; 48282.92470882
376.64; 154.93469; 48440.641536739
377.66; 153.76757; 48597.170287388
378.68; 152.61422; 48752.524974456
379.70; 151.37974; 48906.623017436
380.72; 149.96384; 49059.279738121
381.73; 148.2905; 49210.233066339
382.75; 146.34587; 49359.206846704
383.77; 144.2137; 49506.010174573
384.79; 142.09223; 49650.653931895
385.81; 140.27759; 49793.4504692
386.82; 139.10748; 49935.055877545
387.84; 138.87254; 50076.42213276
388.86; 139.71808; 50218.64911203
389.88; 141.56717; 50362.758384735
390.90; 144.09539; 50509.441275399
391.91; 146.77449; 50658.851375883
392.93; 148.98164; 50810.5082559
393.95; 150.14892; 50963.353377049
394.97; 149.91263; 51115.957965227
395.99; 148.2191; 51266.838612704
397.00; 145.35522; 51414.803954922
398.02; 141.89365; 51559.245565245
399.04; 138.56765; 51700.301449527
400.06; 136.11036; 51838.855926921
401.07; 135.10166; 51976.383585027
402.09; 135.86044; 52114.683654483
403.11; 138.40459; 52255.573550727
404.13; 142.47962; 52400.611656835
405.15; 147.63919; 52550.901978293
406.16; 153.34922; 52707.00486582
407.18; 159.08693; 52868.948498629
408.20; 164.41294; 53036.313775312
409.22; 169.00676; 53208.355367785
410.24; 172.6682; 53384.124142033
411.25; 175.29565; 53562.567552892
412.27; 176.85649; 53742.599832717
413.29; 177.36301; 53923.147725969
414.31; 176.86275; 54103.186375747
415.33; 175.44496; 54281.781773943
416.34; 173.25793; 54458.150865631
417.36; 170.52666; 54631.739649277
418.38; 167.55824; 54802.306707921
419.40; 164.72428; 54969.988917174
420.42; 162.4167; 55135.322108351
421.43; 160.9825; 55299.195351361
422.45; 160.65323; 55462.733405515
423.47; 161.4907; 55627.123965112
424.49; 163.36976; 55793.427333765
425.51; 166.00923; 55962.41757129
426.52; 169.04647; 56134.499578501
427.54; 172.13445; 56309.725025602
428.56; 175.02943; 56487.897437374
429.58; 177.63748; 56668.724722259
430.60; 180.00214; 56851.959138374
431.61; 182.23781; 57037.469361556
432.63; 184.43638; 57225.217638617
433.65; 186.58939; 57415.157588617
434.67; 188.56472; 57607.108333692
435.69; 190.15758; 57800.680540325
436.70; 191.20439; 57995.318358682
437.72; 191.71794; 58190.478952718
438.74; 191.98577; 58385.9121821
439.76; 192.57924; 58581.949540683
440.78; 194.24874; 58779.686380615
441.79; 197.72158; 58980.958415836
442.81; 203.45898; 59188.070877927
443.83; 211.4512; 59403.319080082
444.85; 221.12528; 59628.415069276
445.87; 231.40849; 59863.9789261
446.88; 240.94223; 60109.247720609
447.90; 248.39162; 60362.099672393
448.92; 252.76407; 60619.402593372
449.94; 253.6453; 60877.602560687
450.95; 251.28589; 61133.400755721
451.97; 246.51702; 61384.344440676
452.99; 240.52393; 61629.18741912
454.01; 234.54558; 61867.944700096
455.03; 229.58493; 62101.65225623
456.04; 226.20492; 62331.919101847
457.06; 224.45457; 62560.404168562
458.08; 223.92966; 62788.354894391
459.10; 223.93547; 63016.31154456
460.12; 223.69655; 63244.024981477
461.13; 222.55331; 63470.574650355
462.15; 220.09834; 63694.625267812
463.17; 216.22816; 63914.736202184
464.19; 211.11248; 64129.639594867
465.21; 205.10437; 64338.426989217
466.22; 198.62599; 64540.619671338
467.24; 192.06505; 64736.13360599
468.26; 185.70767; 64925.175997538
469.28; 179.71817; 65108.121335066
470.30; 174.16077; 65285.409484074
471.31; 169.0458; 65457.490812528
472.33; 164.37803; 65624.82055067
473.35; 160.18763; 65787.88464791
474.37; 156.5334; 65947.228897546
475.39; 153.48017; 66103.465085264
476.40; 151.06314; 66257.240844124
477.42; 149.25714; 66409.178168497
478.44; 147.96633; 66559.801509291
479.46; 147.04137; 66709.483275137
480.48; 146.31857; 66858.429265648
481.49; 145.66605; 67006.71101505
482.51; 145.01761; 67154.332681211
483.53; 144.38009; 67301.305387497
484.55; 143.81084; 67447.698619932
485.57; 143.37532; 67593.648504611
486.58; 143.1045; 67739.322711008
487.60; 142.97285; 67884.862899031
488.62; 142.90934; 68030.338443171
489.64; 142.83967; 68175.743059644
490.66; 142.74228; 68321.048541084
491.67; 142.69261; 68466.303462161
492.69; 142.87133; 68611.740308815
493.71; 143.52533; 68757.842900131
494.73; 144.88883; 68905.333479916
495.74; 147.08941; 69055.064149074
496.76; 150.07267; 69207.831646439
497.78; 153.57556; 69364.164941014
498.80; 157.16259; 69524.149671322
499.82; 160.31747; 69687.345937101
500.83; 162.5634; 69852.82846703
501.85; 163.57476; 70019.340514878
502.87; 163.24662; 70185.518529151
503.89; 161.70353; 70350.125744164
504.91; 159.24991; 70512.235276021
505.92; 156.28317; 70671.324798924
506.94; 153.2004; 70827.276191933
507.96; 150.32686; 70980.302447766
508.98; 147.88241; 71130.840357495
510.00; 145.98488; 71279.446663592
511.01; 144.6758; 71426.720380945
512.03; 143.94801; 71573.253239579
513.05; 143.75908; 71719.593783005
514.07; 144.02589; 71866.205921793
515.09; 144.60865; 72013.411290793
516.10; 145.30148; 72161.321930634
517.12; 145.84599; 72309.786859447
518.14; 145.9759; 72458.384029685
519.16; 145.48616; 72606.482659139
520.18; 144.30676; 72753.380711622
521.19; 142.55452; 72898.495066495
522.21; 140.53912; 73041.557824724
523.23; 138.71237; 73182.76103622
524.25; 137.56821; 73322.799535937
525.27; 137.51785; 73462.786777551
526.28; 138.77568; 73604.05443011
527.30; 141.29032; 73747.881874314
528.32; 144.74406; 73895.225076671
529.34; 148.62372; 74046.517611404
530.36; 152.34479; 74201.598031436
531.37; 155.39405; 74359.782469223
532.39; 157.45003; 74520.059806624
533.41; 158.44671; 74681.351720574
534.43; 158.56333; 74842.762351935
535.45; 158.1458; 75003.74795188
536.46; 157.58639; 75164.164100638
537.48; 157.20152; 75324.188460797
538.50; 157.1472; 75484.157532526
539.52; 157.39919; 75644.38311885
540.54; 157.80206; 75805.018806613
541.55; 158.16772; 75966.026723674
542.57; 158.38575; 76127.256578539
543.59; 158.50279; 76288.605582694
544.61; 158.73869; 76450.194716111
545.62; 159.42876; 76612.486314477
546.64; 160.90914; 76776.284876523
547.66; 163.38359; 76942.602320827
548.68; 166.81947; 77112.417342981
549.70; 170.91257; 77286.398962589
550.71; 175.13825; 77464.682144963
551.73; 178.87752; 77646.771739786
552.75; 181.5812; 77831.61356759
553.77; 182.92282; 78017.82110176
554.79; 182.89465; 78203.999964521
555.80; 181.82057; 78389.085457907
556.82; 180.28539; 78572.608207215
557.84; 179.00499; 78754.827563944
558.86; 178.67538; 78936.711394252
559.88; 179.8397; 79119.780444301
560.89; 182.80087; 79305.863839441
561.91; 187.59135; 79496.823740655
562.93; 193.99579; 79694.303081257
563.95; 201.61335; 79899.536768946
564.97; 209.94401; 80113.250711287
565.98; 218.48472; 80335.658726081
567.00; 226.82326; 80566.55501592
568.02; 234.71722; 80805.48701373
569.04; 242.14308; 81051.978220502
570.06; 249.29993; 81305.754790895
571.07; 256.55708; 81566.918832278
572.09; 264.3476; 81836.013277428
573.11; 273.02699; 82113.942975188
574.13; 282.73311; 82401.753084123
575.15; 293.2902; 82700.309846631
576.16; 304.19359; 83009.965798711
577.18; 314.69035; 83330.306994755
578.20; 323.94198; 83660.065950304
579.22; 331.22957; 83997.243359832
580.24; 336.14756; 84339.427071926
581.25; 338.73668; 84684.246390785
582.27; 339.52622; 85029.869426578
583.29; 339.48272; 85375.448183226
584.31; 339.88506; 85721.436511093
585.33; 342.15727; 86069.737848414
