#Wavenumber (cm^-1); Spectrum (K*cm*km*mol^-1); Integral (K*km*mol^-1)
0.00; 1.7565939; 1.7881367982856
1.02; 1.8230117; 3.6438840746066
2.04; 2.0137711; 5.6938161770203
3.05; 2.3054343; 8.0406487752716
4.07; 2.6651352; 10.753641367313
5.09; 3.0579329; 13.866485105001
6.11; 3.453926; 17.382432701255
7.13; 3.8333071; 21.284573915625
8.14; 4.1883537; 25.548137287118
9.16; 4.5223873; 30.151732444409
10.18; 4.8466053; 35.085367451942
11.20; 5.17611; 40.354424050447
12.22; 5.5263547; 45.98001464113
13.23; 5.9107291; 51.99688179428
14.25; 6.3393905; 58.450107758334
15.27; 6.8189686; 65.391523496389
16.29; 7.3525965; 72.87614946432
17.31; 7.9398441; 80.95856813142
18.32; 8.5764205; 89.688994153949
19.34; 9.2538035; 99.108966819832
20.36; 9.9591; 109.24690091459
21.38; 10.675421; 120.11401869063
22.40; 11.382904; 131.70132369642
23.41; 12.06035; 143.97823937351
24.43; 12.687306; 156.89336942469
25.45; 13.246376; 170.37760814471
26.47; 13.725493; 184.34956783334
27.48; 14.119867; 198.72298301379
28.50; 14.433218; 213.4153759919
29.52; 14.67791; 228.35685457548
30.54; 14.873638; 243.49757605711
31.56; 15.044603; 258.81233283185
32.57; 15.215506; 274.30106127839
33.59; 15.40717; 289.98489590607
34.61; 15.632929; 305.89854335083
35.63; 15.896906; 322.080907912
36.65; 16.194928; 338.56664588214
37.66; 16.518055; 355.38131358346
38.68; 16.857854; 372.54188136287
39.70; 17.211843; 390.06279525561
40.72; 17.587325; 407.96593302969
41.74; 18.00211; 426.2913039401
42.75; 18.48152; 445.1046941025
43.77; 19.052116; 464.49892595168
44.79; 19.733624; 484.58690407717
45.81; 20.531188; 505.48676743873
46.83; 21.43009; 527.301674389
47.84; 22.3946; 550.09841064153
48.86; 23.371588; 573.88967907626
49.88; 24.298408; 598.624410005
50.90; 25.113451; 624.18881930034
51.92; 25.767081; 650.41859621182
52.93; 26.230445; 677.12005706816
53.95; 26.500045; 704.09595898853
54.97; 26.596923; 731.17047852333
55.99; 26.560568; 758.20799067454
57.01; 26.439051; 785.12180407707
58.02; 26.27795; 811.87162351416
59.04; 26.111083; 838.4515795383
60.06; 25.955667; 864.87332815892
61.08; 25.813287; 891.15013994673
62.10; 25.676318; 917.28752342443
63.11; 25.537646; 943.28374549294
64.13; 25.400355; 969.14021096161
65.15; 25.283876; 994.87810552601
66.17; 25.224145; 1020.5551971734
67.19; 25.26724; 1046.2761573108
68.20; 25.458188; 1072.1914942545
69.22; 25.8284; 1098.4836907816
70.24; 26.385764; 1125.3432599037
71.26; 27.110698; 1152.9407805712
72.27; 27.959554; 1181.4024000277
73.29; 28.874423; 1210.7953165223
74.31; 29.796386; 1241.1267516996
75.33; 30.678307; 1272.3559446095
76.35; 31.493619; 1304.4150901308
77.36; 32.239027; 1337.2330281777
78.38; 32.931021; 1370.7553860899
79.40; 33.597874; 1404.9565724695
80.42; 34.269787; 1439.841737277
81.44; 34.969884; 1475.439570009
82.45; 35.708042; 1511.7888160368
83.47; 36.478447; 1548.9223007346
84.49; 37.26078; 1586.8521665514
85.51; 38.024356; 1625.5593200539
86.53; 38.734258; 1664.9891229933
87.54; 39.358442; 1705.0543189096
88.56; 39.874688; 1745.6450308683
89.58; 40.276047; 1786.6443090794
90.60; 40.573348; 1827.9462265934
91.62; 40.793538; 1869.4722881211
92.63; 40.973482; 1911.1815251457
93.65; 41.15019; 1953.070642946
94.67; 41.349942; 1995.1630994107
95.69; 41.579778; 2037.4895193507
96.71; 41.824694; 2080.0652530265
97.72; 42.052407; 2122.8727891043
98.74; 42.225044; 2165.8560619384
99.76; 42.31435; 2208.9302439709
100.78; 42.3152; 2252.0052920503
101.80; 42.252127; 2295.016134313
102.81; 42.175552; 2337.9490264933
103.83; 42.147925; 2380.8537952533
104.85; 42.223694; 2423.8356933336
105.87; 42.429617; 2467.0272122602
106.89; 42.752217; 2510.5471241618
107.90; 43.136972; 2554.458700418
108.92; 43.49987; 2598.7396914234
109.94; 43.747704; 2643.2729663722
110.96; 43.800592; 2687.8600790606
111.98; 43.609774; 2732.2529468582
112.99; 43.165859; 2776.1939289535
114.01; 42.496515; 2819.453547134
115.03; 41.656406; 2861.8579707676
116.05; 40.714568; 2903.3036438703
117.07; 39.744288; 2943.7616139899
118.08; 38.818288; 2983.2769565721
119.10; 38.008613; 3021.968084185
120.12; 37.387807; 3060.0272580621
121.14; 37.027096; 3097.7192435129
122.15; 36.988776; 3135.3722217412
123.17; 37.313325; 3173.3555768754
124.19; 38.005232; 3212.0432626584
125.21; 39.023607; 3251.767610758
126.23; 40.283031; 3292.7739978316
127.24; 41.666844; 3335.1890473045
128.26; 43.050415; 3379.012512035
129.28; 44.327637; 3424.136134052
130.30; 45.432028; 3470.3839780404
131.32; 46.34518; 3517.5613716561
132.33; 47.089732; 3565.4966871786
133.35; 47.709745; 3614.0631484747
134.37; 48.246224; 3663.1757224472
135.39; 48.717464; 3712.7679989373
136.41; 49.112013; 3762.7619093438
137.42; 49.397014; 3813.0459384155
138.44; 49.538369; 3863.473860847
139.46; 49.524085; 3913.8872424798
140.48; 49.380408; 3964.1543667215
141.50; 49.172754; 4014.2101082126
142.51; 48.989207; 4064.0790066591
143.53; 48.911351; 4113.8686508952
144.55; 48.982763; 4163.7309900522
145.57; 49.187373; 4213.8016128826
146.59; 49.447207; 4264.1367358373
147.60; 49.642617; 4314.6707777078
148.62; 49.650049; 4365.2123853832
149.64; 49.385719; 4415.4849165401
150.66; 48.840548; 4465.2024865604
151.68; 48.093672; 4514.1597691446
152.69; 47.298222; 4562.3073178192
153.71; 46.641847; 4609.7867050147
154.73; 46.292821; 4656.9107989994
155.75; 46.347709; 4704.0907664299
156.77; 46.796807; 4751.7278967178
157.78; 47.518754; 4800.0999378103
158.80; 48.307248; 4849.2746320048
159.82; 48.923342; 4899.0764834044
160.84; 49.159113; 4949.1183393867
161.86; 48.894981; 4998.8913204875
162.87; 48.134556; 5047.8902210686
163.89; 47.007114; 5095.7414343905
164.91; 45.736818; 5142.2995412638
165.93; 44.586904; 5187.6870854382
166.94; 43.793767; 5232.2672507479
167.96; 43.508301; 5276.5568231978
168.98; 43.75948; 5321.1020853626
170.00; 44.448869; 5366.3491163947
171.02; 45.376328; 5412.5402600779
172.03; 46.289133; 5459.6606003414
173.05; 46.941159; 5507.4446746742
174.07; 47.146978; 5555.4382641332
175.09; 46.818081; 5603.0970500222
176.11; 45.973841; 5649.8964361842
177.12; 44.726818; 5695.4264073646
178.14; 43.248444; 5739.4514570893
179.16; 41.725499; 5781.9262147857
180.18; 40.319082; 5822.9693004501
181.20; 39.13588; 5862.8079377369
182.21; 38.217336; 5901.7115369
183.23; 37.546967; 5939.9327287199
184.25; 37.071203; 5977.6696141854
185.27; 36.725916; 6015.0550122278
186.29; 36.460007; 6052.1697255966
187.30; 36.249214; 6089.0698612367
188.32; 36.096927; 6125.8149756904
189.34; 36.023227; 6162.4850664209
190.36; 36.047269; 6199.1796312363
191.38; 36.170255; 6235.9993900259
192.39; 36.36591; 6273.018317529
193.41; 36.582701; 6310.2579287874
194.43; 36.757705; 6347.6756863267
195.45; 36.837613; 6385.174786656
196.47; 36.799269; 6422.6348545413
197.48; 36.661687; 6459.9548699154
198.50; 36.483989; 6497.0939965549
199.52; 36.348509; 6534.0952097922
200.54; 36.333811; 6571.0814610205
201.56; 36.486628; 6608.2232738231
202.57; 36.802981; 6645.6871202836
203.59; 37.226321; 6683.5819090021
204.61; 37.665007; 6721.9232604034
205.63; 38.024555; 6760.6306162501
206.65; 38.244405; 6799.5617699709
207.66; 38.326489; 6838.5764823031
208.68; 38.344922; 6877.609957895
209.70; 38.432051; 6916.7321275474
210.72; 38.744103; 6956.1719521478
211.74; 39.416803; 6996.2965566923
212.75; 40.525216; 7037.5494776853
213.77; 42.060969; 7080.3657294699
214.79; 43.934428; 7125.0890812497
215.81; 46.001039; 7171.9161538287
216.82; 48.102993; 7220.8829253161
217.84; 50.112333; 7271.8951178028
218.86; 51.96147; 7324.7896517355
219.88; 53.651781; 7379.4048498055
220.90; 55.238778; 7435.6355425076
221.91; 56.80049; 7493.4559897956
222.93; 58.401262; 7552.9059545122
223.95; 60.064237; 7614.0487558686
224.97; 61.762029; 7676.9198367207
225.99; 63.428113; 7741.4869182959
227.00; 64.983656; 7807.6374763433
228.02; 66.368953; 7875.1982067009
229.04; 67.567048; 7943.9785460645
230.06; 68.610287; 8013.8208571544
231.08; 69.566996; 8084.6370566521
232.09; 70.513052; 8156.4163004448
233.11; 71.498899; 8229.1990947449
234.13; 72.52457; 8303.0259772443
235.15; 73.53267; 8377.879062283
236.17; 74.423054; 8453.638519778
237.18; 75.085124; 8530.0719356198
238.20; 75.437176; 8606.8637255957
239.22; 75.459203; 8683.6779381593
240.24; 75.207172; 8760.2355940258
241.26; 74.802577; 8836.3813895154
242.27; 74.39906; 8912.116422034
243.29; 74.135501; 8987.5831629614
244.31; 74.089653; 9063.0032330928
245.33; 74.246638; 9138.5831062236
246.35; 74.492357; 9214.4131109332
247.36; 74.63458; 9290.3878927346
248.38; 74.446398; 9366.1711137905
249.40; 73.720514; 9441.2154155681
250.42; 72.320138; 9514.834194797
251.44; 70.213757; 9586.3087692359
252.45; 67.485894; 9655.0064970223
253.47; 64.322553; 9720.4840803881
254.49; 60.97627; 9782.5552923558
255.51; 57.719933; 9841.3116930864
256.53; 54.799969; 9897.0956968167
257.54; 52.398278; 9950.4348823878
258.56; 50.609166; 10001.952829689
259.58; 49.433761; 10052.274265237
260.60; 48.790769; 10101.94116283
261.61; 48.539746; 10151.352530077
262.63; 48.511352; 10200.734993553
263.65; 48.538442; 10250.145032628
264.67; 48.482185; 10299.497804739
265.69; 48.248739; 10348.612938676
266.70; 47.79421; 10397.265381555
267.72; 47.118556; 10445.230038701
268.74; 46.25202; 10492.312599377
269.76; 45.239777; 10538.364740018
270.78; 44.130874; 10583.288065768
271.79; 42.975651; 10627.035424121
272.81; 41.832055; 10669.618651429
273.83; 40.776795; 10711.127669011
274.85; 39.913828; 10751.758223326
275.87; 39.37207; 10791.83729208
276.88; 39.287178; 10831.829943536
277.90; 39.768298; 10872.312355199
278.92; 40.857824; 10913.903856702
279.94; 42.4975; 10957.164477641
280.96; 44.515316; 11002.479148315
281.97; 46.643071; 11049.959781478
282.99; 48.565334; 11099.397195489
284.01; 49.98953; 11150.28437986
285.03; 50.718026; 11201.91314143
286.05; 50.700003; 11253.5235562
287.06; 50.04534; 11304.467552385
288.08; 48.99378; 11354.341106488
289.10; 47.846877; 11403.047162837
290.12; 46.882708; 11450.771736472
291.14; 46.279589; 11497.8823611
292.15; 46.072539; 11544.782217886
293.17; 46.155637; 11591.766665147
294.19; 46.328265; 11638.926839652
295.21; 46.368748; 11686.12822429
296.23; 46.110204; 11733.066422493
297.24; 45.493405; 11779.376745737
298.26; 44.580095; 11824.75735866
299.28; 43.524217; 11869.063132966
300.30; 42.512873; 11912.339403519
301.32; 41.698584; 11954.786762527
302.33; 41.146277; 11996.671896522
303.35; 40.81225; 12038.217006153
304.37; 40.560578; 12079.50592403
305.39; 40.209533; 12120.437493113
306.41; 39.591084; 12160.739508442
307.42; 38.603359; 12200.036062293
308.44; 37.239795; 12237.944566483
309.46; 35.587639; 12274.171246918
310.48; 33.799003; 12308.577173701
311.49; 32.046166; 12341.198787993
312.51; 30.476561; 12372.222611908
313.53; 29.181188; 12401.927802416
314.55; 28.184155; 12430.618055694
315.57; 27.453221; 12458.564250235
316.58; 26.924443; 12485.972171752
317.60; 26.530344; 12512.978917231
318.62; 26.22144; 12539.671212088
319.64; 25.974736; 12566.112372812
320.66; 25.788346; 12592.363796281
321.67; 25.666653; 12618.49134164
322.69; 25.603586; 12644.554687075
323.71; 25.571776; 12670.585651147
324.73; 25.522704; 12696.566662204
325.75; 25.39848; 12722.421218592
326.76; 25.151262; 12748.024118299
327.78; 24.76312; 12773.231906382
328.80; 24.258479; 12797.925990834
329.82; 23.70346; 12822.055089832
330.84; 23.190768; 12845.662290598
331.85; 22.813817; 12868.885771803
332.87; 22.637882; 12891.930158707
333.89; 22.677663; 12915.015041107
334.91; 22.889128; 12938.315185292
335.93; 23.179177; 12961.910587369
336.94; 23.430973; 12985.762306703
337.96; 23.537533; 13009.722499252
338.98; 23.433317; 13033.576605078
340.00; 23.11401; 13057.105669854
341.02; 22.638432; 13080.150616845
342.03; 22.112276; 13102.659959373
343.05; 21.659078; 13124.70796601
344.07; 21.387655; 13146.47967544
345.09; 21.365831; 13168.229169412
346.11; 21.607681; 13190.224856541
347.12; 22.076729; 13212.698014253
348.14; 22.702433; 13235.808111286
349.16; 23.403553; 13259.63191795
350.18; 24.110781; 13284.175652949
351.20; 24.782381; 13309.403047521
352.21; 25.409677; 13335.269002437
353.23; 26.012776; 13361.748885881
354.25; 26.629554; 13388.856622987
355.27; 27.302133; 13416.649016697
356.28; 28.064727; 13445.217697248
357.30; 28.935488; 13474.672775146
358.32; 29.913518; 13505.123445894
359.34; 30.980978; 13536.660744338
360.36; 32.109436; 13569.346764279
361.37; 33.268977; 13603.213147729
362.39; 34.43795; 13638.269494773
363.41; 35.610616; 13674.519564863
364.43; 36.799735; 13711.980107397
365.45; 38.031727; 13750.694764586
366.46; 39.333869; 13790.734946217
367.48; 40.715813; 13832.181886416
368.50; 42.150626; 13875.089405
369.52; 43.562442; 13919.434090909
370.54; 44.827371; 13965.066420579
371.55; 45.791281; 14011.679968635
372.57; 46.302791; 14058.814211546
373.59; 46.254149; 14105.898938986
374.61; 45.618471; 14152.336574448
375.63; 44.471068; 14197.606202188
376.64; 42.985907; 14241.364000154
377.66; 41.40506; 14283.512564329
378.68; 39.987089; 14324.217695042
379.70; 38.947234; 14363.864298147
380.72; 38.405481; 14402.959420168
381.73; 38.356959; 14442.005148908
382.75; 38.673057; 14481.372651912
383.77; 39.133042; 14521.208400288
384.79; 39.477501; 14561.39479311
385.81; 39.469213; 14601.572748544
386.82; 38.945706; 14641.217796366
387.84; 37.850918; 14679.748397384
388.86; 36.239823; 14716.638973179
389.88; 34.257491; 14751.511621009
390.90; 32.100504; 14784.188548988
391.91; 29.972225; 14814.698980636
392.93; 28.043478; 14843.246030903
393.95; 26.42709; 14870.14766768
394.97; 25.169824; 14895.769462779
395.99; 24.260096; 14920.46519364
397.00; 23.645979; 14944.535780262
398.02; 23.256374; 14968.209765809
399.04; 23.018867; 14991.641979085
400.06; 22.870347; 15014.923005206
401.07; 22.759755; 15038.091454039
402.09; 22.645306; 15061.143398242
403.11; 22.490193; 15084.037444411
404.13; 22.260755; 15106.697932115
405.15; 21.929393; 15129.021108234
406.16; 21.482019; 15150.888876586
407.18; 20.927294; 15172.191958927
408.20; 20.303531; 15192.860077389
409.22; 19.679278; 15212.892733626
410.24; 19.145448; 15232.381973166
411.25; 18.799675; 15251.519230758
412.27; 18.726477; 15270.581975872
413.29; 18.978592; 15289.901363402
414.31; 19.564969; 15309.817657294
415.33; 20.449082; 15330.633939902
416.34; 21.558168; 15352.579224987
417.36; 22.800638; 15375.789290718
418.38; 24.086429; 15400.308236289
419.40; 25.344346; 15426.107686392
420.42; 26.531592; 15453.115701962
421.43; 27.633422; 15481.245333184
422.45; 28.654074; 15510.413943829
423.47; 29.602886; 15540.548404034
424.49; 30.480829; 15571.576573116
425.51; 31.27227; 15603.41039469
426.52; 31.944837; 15635.928860008
427.54; 32.457531; 15668.969226037
428.56; 32.774521; 15702.332273642
429.58; 32.880236; 15735.802935519
430.60; 32.79091; 15769.1826674
431.61; 32.558574; 15802.325890614
432.63; 32.265514; 15835.170791452
433.65; 32.009673; 15867.755257604
434.67; 31.883875; 15900.211666987
435.69; 31.953506; 15932.738957614
436.70; 32.237986; 15965.555835862
437.72; 32.700839; 15998.84387863
438.74; 33.251497; 16032.6924678
439.76; 33.759408; 16067.058088838
440.78; 34.07816; 16101.748185424
441.79; 34.074758; 16136.434818401
442.81; 33.657635; 16170.696838435
443.83; 32.796894; 16204.082661191
444.85; 31.531831; 16236.180704017
445.87; 29.963729; 16266.682487152
446.88; 28.235483; 16295.424990536
447.90; 26.502894; 16322.403792886
448.92; 24.90456; 16347.755560709
449.94; 23.537514; 16371.715734028
450.95; 22.444057; 16394.562815441
451.97; 21.612147; 16416.563048082
452.99; 20.988016; 16437.927942294
454.01; 20.496643; 16458.792640602
455.03; 20.064014; 16479.216941082
456.04; 19.635255; 16499.204783047
457.06; 19.184531; 16518.733807619
458.08; 18.715353; 16537.785229795
459.10; 18.252767; 16556.36575888
460.12; 17.830936; 16574.516882362
461.13; 17.480392; 16592.31116672
462.15; 17.218603; 16609.838961856
463.17; 17.045987; 16627.191041209
464.19; 16.94755; 16644.442915591
465.21; 16.898748; 16661.645112059
466.22; 16.873231; 16678.82133263
467.24; 16.850047; 16695.973953679
468.26; 16.818527; 16713.094488768
469.28; 16.779972; 16730.175776372
470.30; 16.746286; 16747.222772808
471.31; 16.736366; 16764.259671143
472.33; 16.771424; 16781.332257044
473.35; 16.870404; 16798.505600392
474.37; 17.046411; 16815.858111046
475.39; 17.304669; 16833.473517028
476.40; 17.6421; 16851.432413242
477.42; 18.048222; 16869.804724047
478.44; 18.506802; 16888.643849385
479.46; 18.997634; 16907.982621335
480.48; 19.497982; 16927.830725898
481.49; 19.983582; 16948.173150366
482.51; 20.429574; 16968.96957551
483.53; 20.812017; 16990.155310572
484.55; 21.110633; 17011.645023773
485.57; 21.312967; 17033.340704328
486.58; 21.419321; 17055.144648603
487.60; 21.446972; 17076.976740821
488.62; 21.431682; 17098.793268232
489.64; 21.424722; 17120.602710751
490.66; 21.484728; 17142.473236787
491.67; 21.665363; 17164.527641822
492.69; 22.001517; 17186.924236446
493.71; 22.497843; 17209.826070281
494.73; 23.123361; 17233.364653683
495.74; 23.814369; 17257.60665319
496.76; 24.485585; 17282.531922029
497.78; 25.046851; 17308.028535125
498.80; 25.421012; 17333.906027872
499.82; 25.558303; 17359.923277037
500.83; 25.443856; 17385.824024886
501.85; 25.097338; 17411.372031638
502.87; 24.566217; 17436.379380173
503.89; 23.915839; 17460.724672736
504.91; 23.219631; 17484.36125533
505.92; 22.551526; 17507.317735753
506.94; 21.980748; 17529.693188441
507.96; 21.567403; 17551.647874244
508.98; 21.356884; 17573.388260615
510.00; 21.372104; 17595.144139826
511.01; 21.604697; 17617.136789233
512.03; 22.008428; 17639.540419178
513.05; 22.499003; 17662.443433149
514.07; 22.96354; 17685.819326315
515.09; 23.280108; 17709.517471999
516.10; 23.343979; 17733.280635634
517.12; 23.094022; 17756.789353982
518.14; 22.531362; 17779.725308182
519.16; 21.723853; 17801.839252749
520.18; 20.793769; 17823.006412544
521.19; 19.891142; 17843.254736837
522.21; 19.159648; 17862.758431869
523.23; 18.704292; 17881.798593969
524.25; 18.569482; 17900.701525355
525.27; 18.732794; 17919.770701218
526.28; 19.114932; 17939.228876655
527.30; 19.601819; 17959.182682056
528.32; 20.071855; 17979.614963885
529.34; 20.420903; 18000.40256169
530.36; 20.579374; 18021.351476258
531.37; 20.518913; 18042.238844499
532.39; 20.249443; 18062.851904132
533.41; 19.809629; 18083.017251606
534.43; 19.254691; 18102.61769652
535.45; 18.645022; 18121.597524826
536.46; 18.037744; 18139.959170028
537.48; 17.481894; 18157.754983565
538.50; 17.016762; 18175.077313462
539.52; 16.672272; 18192.048966588
540.54; 16.470106; 18208.81482357
541.55; 16.424479; 18225.534234427
542.57; 16.541804; 18242.373077085
543.59; 16.819102; 18259.494197379
544.61; 17.241702; 18277.045505809
545.62; 17.781461; 18295.146266031
546.64; 18.397145; 18313.873766046
547.66; 19.038352; 18333.253987242
548.68; 19.653397; 18353.260297098
549.70; 20.199979; 18373.823004331
550.71; 20.655909; 18394.849828821
551.73; 21.026333; 18416.253728263
552.75; 21.344468; 18437.981475598
553.77; 21.66485; 18460.035357986
554.79; 22.050881; 18482.482203007
555.80; 22.560973; 18505.4482995
556.82; 23.238527; 18529.104116753
557.84; 24.109753; 18553.646805425
558.86; 25.190199; 18579.289341486
559.88; 26.497012; 18606.262156099
560.89; 28.061173; 18634.827219681
561.91; 29.933553; 18665.29828463
562.93; 32.18104; 18698.057194329
563.95; 34.873327; 18733.556736874
564.97; 38.065131; 18772.305397144
565.98; 41.780729; 18814.836375966
567.00; 46.006527; 18861.669034804
568.02; 50.69319; 18913.272514844
569.04; 55.763791; 18970.037648202
570.06; 61.120903; 19032.256089486
571.07; 66.645806; 19100.098644167
572.09; 72.187375; 19173.582276905
573.11; 77.545012; 19252.519752939
574.13; 82.45613; 19336.456534728
575.15; 86.600657; 19424.612266302
576.16; 89.631152; 19515.85291117
577.18; 91.228049; 19608.719128606
578.20; 91.168687; 19701.524918356
579.22; 89.390675; 19792.520768104
580.24; 86.02873; 19880.094303209
581.25; 81.410738; 19962.966921012
582.27; 76.011302; 20040.343146122
583.29; 70.374795; 20111.981650718
584.31; 65.029233; 20178.178603659
585.33; 60.41349; 20239.676929493
