#Wavenumber (cm^-1); Spectrum (K*cm*km*mol^-1); Integral (K*km*mol^-1)
0.00; 13.126121; 13.361825245633
1.02; 13.639561; 27.246309456014
2.04; 15.115881; 42.63362416204
3.05; 17.378807; 60.324499796476
4.07; 20.182051; 80.868956787336
5.09; 23.265269; 104.55199650185
6.11; 26.407478; 131.43366911134
7.13; 29.463954; 161.42670334547
8.14; 32.379294; 194.38742712521
9.16; 35.17757; 230.19667567568
10.18; 37.937287; 268.81519627115
11.20; 40.761709; 310.30885703303
12.22; 43.753853; 354.84839180023
13.23; 47.001016; 402.69339834845
14.25; 50.568671; 454.17012365972
15.27; 54.499974; 509.64874498225
16.29; 58.816235; 569.52113415419
17.31; 63.515346; 634.17701531997
18.32; 68.567934; 703.97621352399
19.34; 73.913445; 779.21691146546
20.36; 79.459151; 860.10289837139
21.38; 85.084207; 946.71494931292
22.40; 90.648975; 1038.9916944995
23.41; 96.00804; 1136.7237359091
24.43; 101.0245; 1239.5623198456
25.45; 105.58346; 1347.0417254428
26.47; 109.60345; 1458.6133030096
27.48; 113.04536; 1573.688599285
28.50; 115.91836; 1691.6884917563
29.52; 118.2816; 1812.0940556414
30.54; 120.23985; 1934.493034421
31.56; 121.93166; 2058.6141995383
32.57; 123.50995; 2184.3419949859
33.59; 125.11807; 2311.7067952194
34.61; 126.86695; 2440.8518747452
35.63; 128.82026; 2571.985338666
36.65; 130.99365; 2705.3312241436
37.66; 133.36992; 2841.096050195
38.68; 135.92677; 2979.4636361836
39.70; 138.66866; 3120.6223472745
40.72; 141.6515; 3264.8174573172
41.74; 144.98978; 3412.4107991325
42.75; 148.84058; 3563.9240905271
43.77; 153.36567; 3720.0437248516
44.79; 158.68045; 3881.5735744945
45.81; 164.80335; 4049.3362696612
46.83; 171.62056; 4224.0385910151
47.84; 178.87801; 4406.1286854283
48.86; 186.20587; 4595.6782243947
49.88; 193.1726; 4792.3195990366
50.90; 199.35777; 4995.2572065947
51.92; 204.42723; 5203.3553037519
52.93; 208.19292; 5415.2867133577
53.95; 210.64221; 5629.7113932031
54.97; 211.92865; 5845.4456167293
55.99; 212.32565; 6061.5839699725
57.01; 212.15438; 6277.5479721292
58.02; 211.70507; 6493.054595905
59.04; 211.17386; 6708.0204775762
60.06; 210.63399; 6922.4367951924
61.08; 210.05081; 7136.2594583416
62.10; 209.33693; 7349.3554176004
63.11; 208.43034; 7561.5285073141
64.13; 207.36954; 7772.6217518359
65.15; 206.33861; 7982.6655538579
66.17; 205.66327; 8192.0218882985
67.19; 205.75421; 8401.4708000407
68.20; 207.01153; 8612.1996052309
69.22; 209.7181; 8825.683586361
70.24; 213.95525; 9043.4807939718
71.26; 219.56809; 9266.9916382297
72.27; 226.19333; 9497.2466857921
73.29; 233.3422; 9734.7789748779
74.31; 240.51465; 9979.612506072
75.33; 247.31117; 10231.364608835
76.35; 253.51096; 10489.427827326
77.36; 259.09654; 10753.176923196
78.38; 264.22255; 11022.144075781
79.40; 269.14265; 11296.119677688
80.42; 274.11916; 11575.161148798
81.44; 279.34182; 11859.519067378
82.45; 284.87592; 12149.51046404
83.47; 290.64893; 12445.378533929
84.49; 296.47359; 12747.175858353
85.51; 302.09702; 13054.697584973
86.53; 307.26148; 13367.476515227
87.54; 311.76297; 13684.837762133
88.56; 315.49586; 14005.99893345
89.58; 318.47567; 14330.193422584
90.60; 320.8349; 14656.789505965
91.62; 322.79132; 14985.377139269
92.63; 324.59309; 15315.798894342
93.65; 326.45159; 15648.112522811
94.67; 328.47872; 15982.489685573
95.69; 330.64808; 16319.075159391
96.71; 332.79619; 16657.847322455
97.72; 334.67005; 16998.526989674
98.74; 336.01208; 17340.572784506
99.76; 336.65901; 17683.277132533
100.78; 336.62192; 18025.943716534
101.80; 336.11646; 18368.095772552
102.81; 335.52623; 18709.647000296
103.83; 335.30349; 19050.971482221
104.85; 335.83459; 19392.836598425
105.87; 337.31178; 19736.205438972
106.89; 339.65367; 20081.95822086
107.90; 342.50172; 20430.610192198
108.92; 345.29535; 20782.105960279
109.94; 347.40184; 21135.746044119
110.96; 348.26007; 21490.259769678
111.98; 347.49538; 21843.995075949
112.99; 344.97661; 22195.166377681
114.01; 340.80986; 22542.096107342
115.03; 335.28673; 22883.403534136
116.05; 328.8177; 23218.12576148
117.07; 321.87945; 23545.785150907
118.08; 314.98995; 23866.43132843
119.10; 308.70418; 24180.678860844
120.12; 303.60793; 24489.738636221
121.14; 300.28444; 24795.415240028
122.15; 299.24096; 25100.029620228
123.17; 300.8051; 25406.236232877
124.19; 305.02272; 25716.736196675
125.21; 311.59946; 26033.931001161
126.23; 319.92068; 26359.596449721
127.24; 329.15925; 26694.666365344
128.26; 338.44808; 27039.19190552
129.28; 347.06645; 27392.490580022
130.30; 354.5795; 27753.437214654
131.32; 360.8834; 28120.800943487
132.33; 366.14211; 28493.517809096
133.35; 370.64188; 28870.815251603
134.37; 374.62166; 29252.163933941
135.39; 378.14741; 29637.10167756
136.41; 381.08165; 30025.0263535
137.42; 383.16107; 30415.067785301
138.44; 384.15037; 30806.116280771
139.46; 384.00684; 31197.018676988
140.48; 382.9816; 31586.877418111
141.50; 381.60463; 31975.334461644
142.51; 380.54494; 32362.712786605
143.53; 380.38713; 32749.930467435
144.55; 381.40323; 33138.182493915
145.57; 383.40795; 33528.475244812
146.59; 385.76192; 33921.164232667
147.60; 387.53811; 34315.661302914
148.62; 387.80892; 34710.434047285
149.64; 385.96513; 35103.329895772
150.66; 381.96069; 35492.149400002
151.68; 376.39568; 35875.303955899
152.69; 370.39846; 36252.353608787
153.71; 365.33182; 36624.245634284
154.73; 362.40492; 36993.158199927
155.75; 362.30632; 37361.970396403
156.77; 364.97012; 37733.494233555
157.78; 369.55029; 38109.680485117
158.80; 374.61753; 38491.024965104
159.82; 378.52805; 38876.350183236
160.84; 379.86316; 39263.034483319
161.86; 377.81781; 39647.636712393
162.87; 372.43044; 40026.754828126
163.89; 364.59066; 40397.892382709
164.91; 355.82292; 40760.10476261
165.93; 347.90471; 41114.256741421
166.94; 342.42105; 41462.826592635
167.96; 340.37192; 41809.310518039
168.98; 341.93178; 42157.382311816
170.00; 346.41789; 42510.020770877
171.02; 352.46795; 42868.817934581
172.03; 358.37397; 43233.62716685
173.05; 362.48196; 43602.618162332
174.07; 363.55564; 43972.702111702
175.09; 361.01732; 44340.20216551
176.11; 355.01673; 44701.593873918
177.12; 346.32525; 45054.138033442
178.14; 336.09818; 45396.271477257
179.16; 325.57728; 45727.695102802
180.18; 315.81486; 46049.181002707
181.20; 307.48681; 46362.189305114
182.21; 300.83163; 46668.422928088
183.23; 295.71425; 46969.4472786
184.25; 291.77881; 47266.465514247
185.27; 288.63299; 47560.281443151
186.29; 286.00289; 47851.420045642
187.30; 283.81217; 48140.328588671
188.32; 282.16734; 48427.562760083
189.34; 281.26322; 48713.876580928
190.36; 281.24935; 49000.176287872
191.38; 282.11059; 49287.352696547
192.39; 283.60993; 49576.055368261
193.41; 285.31953; 49866.498339382
194.43; 286.73421; 50158.381393889
195.45; 287.43088; 50450.973628956
196.47; 287.21793; 50743.349087641
197.48; 286.21818; 51034.706845608
198.50; 284.84906; 51324.670899103
199.52; 283.69824; 51613.46346902
200.54; 283.33107; 51901.882275753
201.56; 284.09387; 52191.077579051
202.57; 285.98391; 52482.196854101
203.59; 288.63837; 52776.018262364
204.61; 291.45592; 53072.707812666
205.63; 293.81752; 53371.801367104
206.65; 295.33551; 53672.440169496
207.66; 296.04453; 53973.80072577
208.68; 296.46277; 54275.58703655
209.70; 297.49305; 54578.422121647
210.72; 300.18712; 54883.999654051
211.74; 305.44499; 55194.929477392
212.75; 313.74586; 55514.309220975
213.77; 324.99949; 55845.14467708
214.79; 338.56817; 56189.792466058
215.81; 353.45213; 56549.591478768
216.82; 368.57654; 56924.786496321
217.84; 383.08441; 57314.749898641
218.86; 396.53893; 57718.409413294
219.88; 408.97228; 58134.725551254
220.90; 420.77252; 58563.053823934
221.91; 432.45679; 59003.276179502
222.93; 444.41828; 59455.674810548
223.95; 456.74069; 59920.617124863
224.97; 469.1471; 60398.188628765
225.99; 481.09882; 60887.926462291
227.00; 492.00379; 61388.765085433
228.02; 501.45311; 61899.222708286
229.04; 509.39336; 62417.7631706
230.06; 516.16591; 62943.197793583
231.08; 522.39308; 63474.971408517
232.09; 528.74843; 64013.21449621
233.11; 535.69249; 64558.526336678
234.13; 543.27116; 65111.552932621
235.15; 551.0546; 65672.502731351
236.17; 558.24666; 66240.773743722
237.18; 563.93501; 66814.835245426
238.20; 567.40086; 67392.424832501
239.22; 568.38331; 67971.014520046
240.24; 567.20442; 68548.404143431
241.26; 564.70491; 69123.249371173
242.27; 562.00208; 69695.343237735
243.29; 560.13985; 70265.541434248
244.31; 559.73747; 70835.330021101
245.33; 560.74585; 71406.145097647
246.35; 562.38849; 71978.632316855
247.36; 563.3086; 72552.056165744
248.38; 561.8835; 73124.029325726
249.40; 556.62069; 73690.645168591
250.42; 546.5301; 74246.989225568
251.44; 531.37885; 74787.909968171
252.45; 511.77116; 75308.870930203
253.47; 489.04455; 75806.6971833
254.49; 465.01874; 76280.066198132
255.51; 441.6637; 76729.660785371
256.53; 420.7628; 77157.979162193
257.54; 403.63761; 77568.864826522
258.56; 390.97846; 77966.864032097
259.58; 382.79879; 78356.536677605
260.60; 378.50612; 78741.839573438
261.61; 377.06481; 79125.675282544
262.63; 377.21309; 79509.661931126
263.65; 377.69195; 79894.136035445
264.67; 377.44403; 80278.357771188
265.69; 375.74799; 80660.853010157
266.70; 372.2683; 81039.80607155
267.72; 367.02082; 81413.417424624
268.74; 360.27648; 81780.163330056
269.76; 352.44257; 82138.934660893
270.78; 343.96653; 82489.077741818
271.79; 335.29592; 82830.39451818
272.81; 326.90313; 83163.16780086
273.83; 319.35081; 83488.253146366
274.85; 313.34859; 83807.228489561
275.87; 309.74452; 84122.535044515
276.88; 309.41295; 84437.504079919
277.90; 313.04115; 84756.166464167
278.92; 320.86588; 85082.794085643
279.94; 332.44931; 85421.213135911
280.96; 346.59215; 85774.02898732
281.97; 361.45261; 86141.97214573
282.99; 374.87751; 86523.581271658
284.01; 384.87676; 86915.369200652
285.03; 390.11139; 87312.485757812
286.05; 390.24363; 87709.73692898
287.06; 386.02758; 88102.696345508
288.08; 379.09492; 88488.598611242
289.10; 371.48767; 88866.757032927
290.12; 365.07609; 89238.388736346
291.14; 361.04198; 89605.913889313
292.15; 359.59031; 89971.961312553
293.17; 359.97759; 90338.402968041
294.19; 360.8402; 90705.722725688
295.21; 360.70594; 91072.905805983
296.23; 358.51209; 91437.855639333
297.24; 353.9555; 91798.167067377
298.26; 347.56193; 92151.970117038
299.28; 340.46144; 92498.545174253
300.30; 333.95809; 92838.500103113
301.32; 329.04959; 93173.458382437
302.33; 326.06399; 93505.377450686
303.35; 324.53406; 93835.739118143
304.37; 323.34382; 94164.889169305
305.39; 321.08852; 94491.743427688
306.41; 316.52096; 94813.948104003
307.42; 308.93544; 95128.431055305
308.44; 298.37089; 95432.159746222
309.46; 285.58133; 95722.869218488
310.48; 271.80121; 95999.551122886
311.49; 258.39562; 96262.586711101
312.51; 246.51317; 96513.52648033
313.53; 236.84548; 96754.624957631
314.55; 229.55098; 96988.297947143
315.57; 224.34127; 97216.667676946
316.58; 220.67633; 97441.306656566
317.60; 217.9873; 97663.208319673
318.62; 215.84854; 97882.932819854
319.64; 214.0497; 98100.826173827
320.66; 212.56075; 98317.203846622
321.67; 211.42298; 98532.423319168
322.69; 210.62263; 98746.828067819
323.71; 210.00557; 98960.604679834
324.73; 209.27126; 99173.633789573
325.75; 208.05109; 99385.420819914
326.76; 206.04246; 99595.163157153
327.78; 203.14647; 99801.957499221
328.80; 199.55306; 100005.09389888
329.82; 195.7336; 100204.34225431
330.84; 192.33215; 100400.12808709
331.85; 189.9826; 100593.52217283
332.87; 189.10727; 100786.02521697
333.89; 189.76348; 100979.19624959
334.91; 191.59249; 101174.22913598
335.93; 193.89507; 101371.60594992
336.94; 195.81699; 101570.9391955
337.96; 196.59153; 101771.06088824
338.98; 195.76577; 101970.34199379
340.00; 193.34094; 102167.15473259
341.02; 189.78341; 102360.34605702
342.03; 185.9033; 102549.58759863
343.05; 182.63889; 102735.50610743
344.07; 180.81256; 102919.56548684
345.09; 180.93017; 103103.74459678
346.11; 183.07859; 103290.11070436
347.12; 186.94293; 103480.41053751
348.14; 191.92828; 103675.78524606
349.16; 197.34179; 103876.67067242
350.18; 202.57874; 104082.88709303
351.20; 207.26278; 104293.87165633
352.21; 211.30988; 104508.97599953
353.23; 214.91115; 104727.74627696
354.25; 218.45074; 104950.11970736
355.27; 222.38865; 105176.50175363
356.28; 227.14044; 105407.72092006
357.30; 232.98139; 105644.88592595
358.32; 239.99305; 105889.18849411
359.34; 248.0602; 106141.70307208
360.36; 256.91627; 106403.23274608
361.37; 266.22545; 106674.23876434
362.39; 275.6809; 106954.87002264
363.41; 285.09141; 107245.08077628
364.43; 294.42732; 107544.79508509
365.45; 303.80332; 107854.05375326
366.46; 313.39237; 108173.07366633
367.48; 323.28855; 108502.1674628
368.50; 333.35968; 108841.51323021
369.52; 343.14468; 109190.81971065
370.54; 351.84683; 109548.98459623
371.55; 358.45026; 109913.87149482
372.57; 361.94877; 110282.31972126
373.59; 361.63348; 110650.44700061
374.61; 357.35657; 111014.22056985
375.63; 349.68226; 111370.18202384
376.64; 339.86083; 111716.14568765
377.66; 329.60963; 112051.6740648
378.68; 320.74348; 112378.17708533
379.70; 314.74637; 112698.57531142
380.72; 312.39971; 113016.58473126
381.73; 313.57174; 113335.78723627
382.75; 317.2302; 113658.71388936
383.77; 321.67819; 113986.16840472
384.79; 324.95235; 114316.95587533
385.81; 325.2787; 114648.0755555
386.82; 321.46954; 114975.3176743
387.84; 313.16525; 115294.10638792
388.86; 300.87072; 115600.37979644
389.88; 285.79254; 115891.3042721
390.90; 269.53383; 116165.67807896
391.91; 253.7342; 116423.96855
392.93; 239.7475; 116668.02116094
393.95; 228.42915; 116900.55218167
394.97; 220.06801; 117124.57192359
395.99; 214.45507; 117342.87792604
397.00; 211.04656; 117557.71421804
398.02; 209.16068; 117770.63076866
399.04; 208.14831; 117982.51676565
400.06; 207.49745; 118193.74021625
401.07; 206.85984; 118404.31461003
402.09; 206.01676; 118614.03077798
403.11; 204.82004; 118822.5287433
404.13; 203.14787; 119029.32450441
405.15; 200.9022; 119233.83426966
406.16; 198.0524; 119435.44306632
407.18; 194.70516; 119633.64451952
408.20; 191.16509; 119828.24233007
409.22; 187.94929; 120019.56659459
410.24; 185.73376; 120208.63555064
411.25; 185.23448; 120397.19625625
412.27; 187.05204; 120587.60716256
413.29; 191.52584; 120782.57220312
414.31; 198.64431; 120984.7835356
415.33; 208.0418; 121196.56110711
416.34; 219.08489; 121419.58007336
417.36; 231.0217; 121654.75019097
418.38; 243.14742; 121902.26377617
419.40; 254.93553; 122161.77714809
420.42; 266.0969; 122432.65231049
421.43; 276.55506; 122714.17343185
422.45; 286.35404; 123005.66948551
423.47; 295.53681; 123306.51320216
424.49; 304.04044; 123616.01325063
425.51; 311.64609; 123933.25552083
426.52; 318.00252; 124256.96836332
427.54; 322.71729; 124585.4806402
428.56; 325.48804; 124916.81342206
429.58; 326.23367; 125248.90522215
430.60; 325.18419; 125579.92869969
431.61; 322.89809; 125908.62502283
432.63; 320.19385; 126234.56854584
433.65; 318.0037; 126558.28258645
434.67; 317.17754; 126881.15563696
435.69; 318.27988; 127205.15082482
436.70; 321.42832; 127532.35098249
437.72; 326.21746; 127864.42627766
438.74; 331.75612; 128202.1396931
439.76; 336.82076; 128545.0086876
440.78; 340.09935; 128891.21514621
441.79; 340.47453; 129237.80352782
442.81; 337.27993; 129581.13994416
443.83; 330.46539; 129917.53945445
444.85; 320.6263; 130243.92318728
445.87; 308.88512; 130558.3549082
446.88; 296.65149; 130860.33332475
447.90; 285.31889; 131150.7756474
448.92; 275.97269; 131431.70393324
449.94; 269.18026; 131705.71782675
450.95; 264.91144; 131975.38624202
451.97; 262.60255; 132242.70430986
452.99; 261.34176; 132508.73893933
454.01; 260.12502; 132773.53498355
455.03; 258.11914; 133036.2891261
456.04; 254.87085; 133295.73664965
457.06; 250.41739; 133550.65074818
458.08; 245.27787; 133800.3330316
459.10; 240.33084; 134044.97946029
460.12; 236.60724; 134285.83542065
461.13; 235.04482; 134525.10090638
462.15; 236.2599; 134765.60328863
463.17; 240.3905; 135010.31044699
464.19; 247.05252; 135261.79924782
465.21; 255.42611; 135521.81200069
466.22; 264.45775; 135791.01857771
467.24; 273.13045; 136069.05358473
468.26; 280.7309; 136354.82552922
469.28; 287.03735; 136647.01716778
470.30; 292.36995; 136944.63716064
471.31; 297.48515; 137247.46421139
472.33; 303.34487; 137556.25620284
473.35; 310.83385; 137872.6716516
474.37; 320.51835; 138198.94550411
475.39; 332.52601; 138537.44263182
476.40; 346.58333; 138890.24951017
477.42; 362.18835; 139258.94162508
478.44; 378.84354; 139644.58799679
479.46; 396.25009; 140047.95348502
480.48; 414.3801; 140469.77454251
481.49; 433.39397; 140910.95090648
482.51; 453.43765; 141372.53087239
483.53; 474.41017; 141855.45994868
484.55; 495.8124; 142360.17558031
485.57; 516.76173; 142886.21672687
486.58; 536.19192; 143432.03696549
487.60; 553.17901; 143995.14932848
488.62; 567.27327; 144572.60903891
489.64; 578.70182; 145161.70252152
490.66; 588.34566; 145760.61301131
491.67; 597.47564; 146368.81743045
492.69; 607.32457; 146987.04763779
493.71; 618.63972; 147616.79617455
494.73; 631.37473; 148259.50840152
495.74; 644.63404; 148915.71803421
496.76; 656.89318; 149584.40694592
497.78; 666.41933; 150262.79306529
498.80; 671.7462; 150946.60171376
499.82; 672.04329; 151630.71278671
500.83; 667.26566; 152309.96043982
501.85; 658.05795; 152979.8350399
502.87; 645.47852; 153636.90431558
503.89; 630.67024; 154278.89940256
504.91; 614.60996; 154904.54582136
505.92; 598.01923; 155513.30358819
506.94; 581.43801; 156105.18238891
507.96; 565.38641; 156680.72135248
508.98; 550.50014; 157241.10674357
510.00; 537.54089; 157788.30017021
511.01; 527.24507; 158325.01290342
512.03; 520.05731; 158854.40880528
513.05; 515.86025; 159379.53228107
514.07; 513.83233; 159902.59141867
515.09; 512.52736; 160424.32215179
516.10; 510.18894; 160943.6724798
517.12; 505.21972; 161457.96435355
518.14; 496.65774; 161963.54050063
519.16; 484.49749; 162456.73803708
520.18; 469.73814; 162934.91119554
521.19; 454.13057; 163397.19651636
522.21; 439.69482; 163844.78686713
523.23; 428.15516; 164280.63034693
524.25; 420.46419; 164708.64475206
525.27; 416.55467; 165132.67943004
526.28; 415.38167; 165555.52004539
527.30; 415.22662; 165978.20282403
528.32; 414.15984; 166399.79966835
529.34; 410.5222; 166817.69355478
530.36; 403.29598; 167228.23146306
531.37; 392.28169; 167627.55729605
532.39; 378.06138; 168012.40746407
533.41; 361.78835; 168380.69239139
534.43; 344.88138; 168731.766752
535.45; 328.71211; 169066.38149579
536.46; 314.36002; 169386.38642935
537.48; 302.4794; 169694.29741086
538.50; 293.28842; 169992.85236372
539.52; 286.65978; 170284.65964675
540.54; 282.27225; 170572.00061967
541.55; 279.77298; 170856.79743853
542.57; 278.90352; 171140.70918725
543.59; 279.55606; 171425.28518975
544.61; 281.74755; 171712.09203732
545.62; 285.52521; 172002.7443842
546.64; 290.83938; 172298.80632365
547.66; 297.43293; 172601.58021559
548.68; 304.79416; 172911.84751602
549.70; 312.20088; 173229.65453783
550.71; 318.85308; 173554.23320908
551.73; 324.05895; 173884.11124096
552.75; 327.41784; 174217.40847179
553.77; 328.94137; 174552.25659611
554.79; 329.07425; 174887.23998507
555.80; 328.61003; 175221.75081925
556.82; 328.53349; 175556.18373324
557.84; 329.84385; 175891.95054304
558.86; 333.41449; 176231.35210295
559.88; 339.92384; 176577.37989904
560.89; 349.86008; 176933.52236454
561.91; 363.57173; 177303.62269681
562.93; 381.32188; 177691.79191134
563.95; 403.31; 178102.34409278
564.97; 429.64739; 178539.70660068
565.98; 460.29815; 179008.270259
567.00; 495.01439; 179512.17354259
568.02; 533.29298; 180055.04278457
569.04; 574.36516; 180639.72173576
570.06; 617.20866; 181268.01352244
571.07; 660.56014; 181940.43524362
572.09; 702.91117; 182655.96848694
573.11; 742.49382; 183411.79515965
574.13; 777.28959; 184203.04242209
575.15; 805.11119; 185022.61087143
576.16; 823.79662; 185861.20028156
577.18; 831.51727; 186707.64898025
578.20; 827.14902; 187549.65099102
579.22; 810.61031; 188374.81730494
580.24; 783.05684; 189171.93538088
581.25; 746.85092; 189932.19738613
582.27; 705.28705; 190650.14917311
583.29; 662.13179; 191324.1707587
584.31; 621.09215; 191956.41576288
