#Wavenumber (cm^-1); Spectrum (K*cm*km*mol^-1); Integral (K*km*mol^-1)
0.00; 1.2645682; 1.2872758815239
1.02; 1.3106875; 2.6214992075639
2.04; 1.444764; 4.0922066210029
3.05; 1.6550154; 5.7769408691713
4.07; 1.9251092; 7.7366189215746
5.09; 2.2383145; 10.015126512139
6.11; 2.581788; 12.643275252141
7.13; 2.9497335; 15.645976681863
8.14; 3.3443137; 19.050343721542
9.16; 3.7737335; 22.891841583496
10.18; 4.2478101; 27.215928962163
11.20; 4.7723271; 32.073952056747
12.22; 5.34417; 37.51408652771
13.23; 5.9492866; 43.570203546007
14.25; 6.5647494; 50.25283518791
15.27; 7.1647716; 57.54626352238
16.29; 7.7289269; 65.413977584898
17.31; 8.2496923; 73.811808338867
18.32; 8.7363083; 82.704993178626
19.34; 9.2130299; 92.083460048963
20.36; 9.7118202; 101.96967388866
21.38; 10.261701; 112.4156423535
22.40; 10.87845; 123.48943541015
23.41; 11.558471; 135.25546023972
24.43; 12.27926; 147.75521721096
25.45; 13.006509; 160.99528253912
26.47; 13.705312; 174.94669903305
27.48; 14.35133; 189.55573371407
28.50; 14.937749; 204.76171725763
29.52; 15.475504; 220.51511292867
30.54; 15.986938; 236.78912571873
31.56; 16.495671; 253.58100658642
32.57; 17.016994; 270.90357218283
33.59; 17.552774; 288.77153839052
34.61; 18.092916; 307.1893466131
35.63; 18.622607; 326.14635674258
36.65; 19.132005; 345.62191193759
37.66; 19.623966; 365.59826241063
38.68; 20.11611; 386.07559384627
39.70; 20.635921; 407.08207068764
40.72; 21.210571; 428.67351691081
41.74; 21.855512; 450.92148502407
42.75; 22.566637; 473.89334723964
43.77; 23.319574; 497.63166759282
44.79; 24.076927; 522.14094054993
45.81; 24.80109; 547.38738007473
46.83; 25.467972; 573.3126763775
47.84; 26.076396; 599.85732265432
48.86; 26.649439; 626.9853016528
49.88; 27.22688; 654.70109018867
50.90; 27.851216; 683.0524260046
51.92; 28.552039; 712.11716919838
52.93; 29.334166; 741.97808440508
53.95; 30.173588; 772.69349473283
54.97; 31.022538; 804.27309994862
55.99; 31.821931; 836.66645302123
57.01; 32.51707; 869.767427156
58.02; 33.071747; 903.43303827417
59.04; 33.476762; 937.51093787131
60.06; 33.751011; 971.86801021664
61.08; 33.935777; 1006.41316665
62.10; 34.084846; 1041.1100692094
63.11; 34.253791; 1075.9789505001
64.13; 34.49132; 1111.0896260271
65.15; 34.834171; 1146.5493088291
66.17; 35.305434; 1182.4887167787
67.19; 35.915045; 1219.0486823072
68.20; 36.660912; 1256.3679084084
69.22; 37.52969; 1294.5715132399
70.24; 38.497206; 1333.7600074158
71.26; 39.529376; 1373.9992065
72.27; 40.58469; 1415.3126692543
73.29; 41.618784; 1457.6787954401
74.31; 42.590611; 1501.0342000534
75.33; 43.468676; 1545.2834368699
76.35; 44.235418; 1590.3131831818
77.36; 44.888309; 1636.0075447432
78.38; 45.437529; 1682.2609886529
79.40; 45.901559; 1728.9867949783
80.42; 46.303058; 1776.1213096852
81.44; 46.66725; 1823.6265559825
82.45; 47.02372; 1871.494674245
83.47; 47.410446; 1919.7564626808
84.49; 47.877008; 1968.493190816
85.51; 48.483293; 2017.847091417
86.53; 49.291142; 2068.0233474261
87.54; 50.349191; 2119.27665143
88.56; 51.674636; 2171.8792006588
89.58; 53.238287; 2226.0734795667
90.60; 54.959781; 2282.0201647711
91.62; 56.717478; 2339.7561095317
92.63; 58.372959; 2399.1772630162
93.65; 59.804587; 2460.0557517304
94.67; 60.940447; 2522.0904969129
95.69; 61.779916; 2584.9797852416
96.71; 62.395823; 2648.4960400804
97.72; 62.915059; 2712.5408549247
98.74; 63.482567; 2777.1633690374
99.76; 64.219396; 2842.5359432611
100.78; 65.1878; 2908.8943102344
101.80; 66.374284; 2976.4604671716
102.81; 67.695704; 3045.3717725166
103.83; 69.026017; 3115.6372796776
104.85; 70.234754; 3187.1332288522
105.87; 71.224821; 3259.6370228448
106.89; 71.95803; 3332.8871923067
107.90; 72.461225; 3406.6495921114
108.92; 72.812332; 3480.7694039185
109.94; 73.111931; 3555.1941947861
110.96; 73.449918; 3629.9630415376
111.98; 73.877613; 3705.167263418
112.99; 74.393288; 3780.89641992
114.01; 74.944629; 3857.1868181187
115.03; 75.446665; 3933.9882675798
116.05; 75.809534; 4011.1591015945
117.07; 75.968145; 4088.4913953089
118.08; 75.905623; 4165.7600437145
119.10; 75.66418; 4242.782914162
120.12; 75.340321; 4319.476110099
121.14; 75.06514; 4395.8891829307
122.15; 74.974291; 4472.2097756192
123.17; 75.175; 4548.7346820379
124.19; 75.718556; 4625.8129049048
125.21; 76.585633; 4703.7737748598
126.23; 77.68859; 4782.8574069166
127.24; 78.890284; 4863.1643120341
128.26; 80.034291; 4944.6357671287
129.28; 80.97815; 5027.0680292967
130.30; 81.62063; 5110.1543089934
131.32; 81.916308; 5193.5415754532
132.33; 81.875173; 5276.8869689036
133.35; 81.550034; 5359.9013844003
134.37; 81.018063; 5442.3742759715
135.39; 80.363743; 5524.1810983474
136.41; 79.668306; 5605.279995976
137.42; 79.006663; 5685.7053700875
138.44; 78.448701; 5765.5627630045
139.46; 78.059573; 5845.0240394176
140.48; 77.894391; 5924.3171685788
141.50; 77.986199; 6003.7037541776
142.51; 78.330584; 6083.440908743
143.53; 78.873727; 6163.7309588567
144.55; 79.511069; 6244.6697961421
145.57; 80.100776; 6326.2089294869
146.59; 80.490717; 6408.1450065426
147.60; 80.552127; 6490.1435959404
148.62; 80.209767; 6571.7936776522
149.64; 79.458967; 6652.6794768996
150.66; 78.364188; 6732.4508388333
151.68; 77.040178; 6810.8744153134
152.69; 75.622672; 6887.855032562
153.71; 74.238698; 6963.426823802
154.73; 72.985559; 7037.7229737851
155.75; 71.923243; 7110.9377314849
156.77; 71.079136; 7183.2932246656
157.78; 70.459193; 7255.0176427458
158.80; 70.057954; 7326.3336172577
159.82; 69.861659; 7397.4497716386
160.84; 69.843118; 7468.5470520697
161.86; 69.951911; 7539.7550786021
162.87; 70.106623; 7611.1205960782
163.89; 70.195863; 7682.57695531
164.91; 70.091616; 7753.9271955229
165.93; 69.673533; 7824.8518458822
166.94; 68.857901; 7894.946217722
167.96; 67.622374; 7963.7828760869
168.98; 66.018031; 8030.9863826596
170.00; 64.163782; 8096.3023435049
171.02; 62.223388; 8159.6430675326
172.03; 60.370597; 8221.0977302892
173.05; 58.751416; 8280.904136765
174.07; 57.453425; 8339.3892437808
175.09; 56.49003; 8396.8936569542
176.11; 55.803461; 8453.6991721736
177.12; 55.285215; 8509.9771349994
178.14; 54.808079; 8565.769394386
179.16; 54.260855; 8621.004602943
180.18; 53.57635; 8675.5430152757
181.20; 52.745223; 8729.2353761155
182.21; 51.812324; 8781.9780864016
183.23; 50.857283; 8833.7486054916
184.25; 49.965712; 8884.6115437739
185.27; 49.200201; 8934.6952252319
186.29; 48.580209; 8984.1477817116
187.30; 48.077002; 9033.0880947779
188.32; 47.624753; 9081.5680377307
189.34; 47.143505; 9129.5580915329
190.36; 46.565784; 9176.9600506787
191.38; 45.857686; 9223.6411962078
192.39; 45.027628; 9269.4773788008
193.41; 44.120762; 9314.3904108531
194.43; 43.202421; 9358.3686114795
195.45; 42.33787; 9401.4667359908
196.47; 41.576453; 9443.7897711954
197.48; 40.945802; 9485.4708309848
198.50; 40.457077; 9526.654389393
199.52; 40.117348; 9567.4921182671
200.54; 39.942177; 9608.1515310009
201.56; 39.961514; 9648.8306279788
202.57; 40.215108; 9689.7678723265
203.59; 40.738391; 9731.2377962697
204.61; 41.544179; 9773.5279778911
205.63; 42.607715; 9816.9007929631
206.65; 43.861692; 9861.550102327
207.66; 45.20434; 9907.5661694171
208.68; 46.518902; 9954.9204042671
209.70; 47.698775; 10003.475698638
210.72; 48.670702; 10053.020373278
211.74; 49.40928; 10103.316887994
212.75; 49.939093; 10154.152730177
213.77; 50.324865; 10205.381271256
214.79; 50.653516; 10256.944364288
215.81; 51.01404; 10308.874455555
216.82; 51.481108; 10361.280001744
217.84; 52.106628; 10414.32230042
218.86; 52.92084; 10468.193431696
219.88; 53.941596; 10523.10364921
220.90; 55.18805; 10579.282702337
221.91; 56.693427; 10636.99416436
222.93; 58.51133; 10696.5561734
223.95; 60.71122; 10758.357575562
224.97; 63.361472; 10822.856819734
225.99; 66.502266; 10890.553257326
227.00; 70.114745; 10961.927041765
228.02; 74.095997; 11037.35356914
229.04; 78.250188; 11117.008883998
230.06; 82.303454; 11200.790248971
231.08; 85.944223; 11288.277759382
232.09; 88.882661; 11378.756472336
233.11; 90.915464; 11471.30449182
234.13; 91.977982; 11564.934108656
235.15; 92.166717; 11658.755849451
236.17; 91.722117; 11752.125006643
237.18; 90.972554; 11844.731140847
238.20; 90.252271; 11936.604058658
239.22; 89.814915; 12028.031766594
240.24; 89.766847; 12119.410543518
241.26; 90.039604; 12211.066974924
242.27; 90.409814; 12303.100264227
243.29; 90.561099; 12395.287555024
244.31; 90.170277; 12487.077006388
245.33; 88.99348; 12577.668528674
246.35; 86.928536; 12666.15802732
247.36; 84.037775; 12751.704855554
248.38; 80.527453; 12833.678327967
249.40; 76.692489; 12911.747972717
250.42; 72.844183; 12985.900207805
251.44; 69.241764; 13056.385335929
252.45; 66.045454; 13123.616758442
253.47; 63.300844; 13188.054286063
254.49; 60.954584; 13250.103422489
255.51; 58.892751; 13310.053701304
256.53; 56.988126; 13368.065154214
257.54; 55.142077; 13424.197408686
258.56; 53.310248; 13478.464941186
259.58; 51.507392; 13530.897243508
260.60; 49.793204; 13581.584576245
261.61; 48.246183; 13630.697108289
262.63; 46.934911; 13678.474822367
263.65; 45.89556; 13725.194522118
264.67; 45.121349; 13771.126108749
265.69; 44.56537; 13816.491731884
266.70; 44.154039; 13861.438637893
267.72; 43.805708; 13906.030958447
268.74; 43.448255; 13950.259407511
269.76; 43.030855; 13994.0629608
270.78; 42.527836; 14037.354462385
271.79; 41.935545; 14080.043037435
272.81; 41.265357; 14122.049390138
273.83; 40.536705; 14163.314006887
274.85; 39.773121; 14203.801327289
275.87; 39.002276; 14243.503961441
276.88; 38.258838; 14282.449807981
277.90; 37.587434; 14320.712194026
278.92; 37.042872; 14358.420238938
279.94; 36.685877; 14395.764878692
280.96; 36.57453; 14432.996171793
281.97; 36.753435; 14470.40958249
282.99; 37.243695; 14508.322056598
284.01; 38.036562; 14547.041635086
285.03; 39.092403; 14586.836014026
286.05; 40.3449; 14627.905381392
287.06; 41.708974; 14670.363316821
288.08; 43.090274; 14714.227356338
289.10; 44.394401; 14759.418940752
290.12; 45.53488; 14805.771483483
291.14; 46.439821; 14853.045217191
292.15; 47.057567; 14900.947789467
293.17; 47.361327; 14949.159576261
294.19; 47.352057; 14997.361927127
295.21; 47.058227; 15045.265171217
296.23; 46.53116; 15092.631883753
297.24; 45.835625; 15139.290571781
298.26; 45.036976; 15185.136270325
299.28; 44.187812; 15230.117555943
300.30; 43.31797; 15274.213379861
301.32; 42.431211; 15317.406521829
302.33; 41.510053; 15359.661964128
303.35; 40.527552; 15400.917263015
304.37; 39.462344; 15441.088226771
305.39; 38.311889; 15480.088076693
306.41; 37.099285; 15517.853547645
307.42; 35.8711; 15554.368779894
308.44; 34.686687; 15589.678330885
309.46; 33.602329; 15623.884051823
310.48; 32.655301; 15657.125739517
311.49; 31.852897; 15689.550614443
312.51; 31.169774; 15721.280099696
313.53; 30.554313; 15752.383071473
314.55; 29.941955; 15782.862689989
315.57; 29.271646; 15812.659962885
316.58; 28.500944; 15841.672694118
317.60; 27.616158; 15869.784750933
318.62; 26.635467; 15896.898506946
319.64; 25.604839; 15922.96312844
320.66; 24.58811; 15947.992763075
321.67; 23.653576; 15972.071082663
322.69; 22.859854; 15995.341428063
323.71; 22.243692; 16017.984546786
324.73; 21.81206; 16040.188282589
325.75; 21.540216; 16062.115292955
326.76; 21.376472; 16083.87561907
327.78; 21.253131; 16105.510389459
328.80; 21.101615; 16126.99092341
329.82; 20.868524; 16148.234180359
330.84; 20.528698; 16169.131508798
331.85; 20.091718; 16189.584010424
332.87; 19.59973; 16209.535689298
333.89; 19.116772; 16228.995738335
334.91; 18.712244; 16248.043995339
335.93; 18.442955; 16266.818127685
336.94; 18.338733; 16285.486166279
337.96; 18.395564; 16304.212057034
338.98; 18.578025; 16323.123684542
340.00; 18.830024; 16342.291836031
341.02; 19.090557; 16361.725199443
342.03; 19.309897; 16381.381841788
343.05; 19.461806; 16401.193120252
344.07; 19.54874; 16421.092893854
345.09; 19.599111; 16441.043942783
346.11; 19.657776; 16461.054710127
347.12; 19.772575; 16481.18233785
348.14; 19.98052; 16501.521644622
349.16; 20.297186; 16522.18330438
350.18; 20.712043; 16543.267270873
351.20; 21.191092; 16564.838888064
352.21; 21.686471; 16586.914779657
353.23; 22.150898; 16609.46343843
354.25; 22.55329; 16632.421714159
355.27; 22.891094; 16655.723859632
356.28; 23.195231; 16679.33560404
357.30; 23.525211; 16703.283253313
358.32; 23.954798; 16727.668203799
359.34; 24.551804; 16752.660881121
360.36; 25.358015; 16778.474246547
361.37; 26.375947; 16805.323822276
362.39; 27.567418; 16833.386264533
363.41; 28.86515; 16862.769741483
364.43; 30.193919; 16893.505847668
365.45; 31.493994; 16925.565374844
366.46; 32.73823; 16958.891480172
367.48; 33.936109; 16993.436975049
368.50; 35.122776; 17029.190445417
369.52; 36.336896; 17066.179837322
370.54; 37.595856; 17104.450796307
371.55; 38.878289; 17144.027216958
372.57; 40.121435; 17184.869106057
373.59; 41.235212; 17226.84477259
374.61; 42.128254; 17269.729516814
375.63; 42.736194; 17313.233118072
376.64; 43.04136; 17357.047365579
377.66; 43.076207; 17400.897085814
378.68; 42.909203; 17444.576802645
379.70; 42.618818; 17487.960920379
380.72; 42.265951; 17530.985834779
381.73; 41.875569; 17573.613357086
382.75; 41.434393; 17615.791780688
383.77; 40.90471; 17657.431010291
384.79; 40.247729; 17698.401461529
385.81; 39.446039; 17738.555827442
386.82; 38.515379; 17777.762821597
387.84; 37.500662; 17815.936877622
388.86; 36.458115; 17853.049665858
389.88; 35.431454; 17889.11735733
390.90; 34.432726; 17924.168386586
391.91; 33.436642; 17958.20544517
392.93; 32.391657; 17991.178754589
393.95; 31.244054; 18022.983853476
394.97; 29.965716; 18053.487658823
395.99; 28.574437; 18082.575202463
397.00; 27.138206; 18110.200724705
398.02; 25.760866; 18136.424174832
399.04; 24.553578; 18161.418657206
400.06; 23.601784; 18185.444255222
401.07; 22.93908; 18208.795249012
402.09; 22.536853; 18231.736793001
403.11; 22.31304; 18254.450505034
404.13; 22.156818; 18277.005189668
405.15; 21.960966; 18299.360504937
406.16; 21.651606; 18321.40090528
407.18; 21.206517; 18342.988224881
408.20; 20.657387; 18364.016553665
409.22; 20.076619; 18384.453685449
410.24; 19.553832; 18404.358642556
411.25; 19.169651; 18423.872519591
412.27; 18.974335; 18443.187573592
413.29; 18.976608; 18462.504941509
414.31; 19.144672; 18481.993391599
415.33; 19.417984; 18501.760061142
416.34; 19.7258; 18521.840074679
417.36; 20.007301; 18542.20664344
418.38; 20.228243; 18562.798122044
419.40; 20.390382; 18583.554651044
420.42; 20.531761; 18604.455097833
421.43; 20.718087; 18625.545216573
422.45; 21.027279; 18646.950078813
423.47; 21.530673; 18668.867374507
424.49; 22.275057; 18691.542421095
425.51; 23.269524; 18715.22979262
426.52; 24.480157; 18740.149536274
427.54; 25.833856; 18766.447287119
428.56; 27.230601; 18794.166863878
429.58; 28.561492; 18823.241230673
430.60; 29.728564; 18853.503625898
431.61; 30.661929; 18884.716146229
432.63; 31.330485; 18916.60922819
433.65; 31.743989; 18948.923239504
434.67; 31.946417; 18981.443313488
435.69; 32.002624; 19014.020603335
436.70; 31.981817; 19046.576713058
437.72; 31.941913; 19079.092202469
438.74; 31.918321; 19111.583676323
439.76; 31.919311; 19144.076157884
440.78; 31.928266; 19176.577754841
441.79; 31.911354; 19209.062136397
442.81; 31.827965; 19241.461631659
443.83; 31.640901; 19273.670703774
444.85; 31.323861; 19305.557043078
445.87; 30.864916; 19336.976195914
446.88; 30.266036; 19367.785714858
447.90; 29.539873; 19397.856030428
448.92; 28.705523; 19427.077014499
449.94; 27.784888; 19455.360831876
450.95; 26.80052; 19482.642604507
451.97; 25.77498; 19508.880422164
452.99; 24.73098; 19534.055492338
454.01; 23.691279; 19558.172192093
455.03; 22.677602; 19581.257012753
456.04; 21.708446; 19603.355273823
457.06; 20.796397; 19624.525108955
458.08; 19.946052; 19644.829329677
459.10; 19.153587; 19664.326854512
460.12; 18.408524; 19683.065937173
461.13; 17.697404; 19701.08113075
462.15; 17.008282; 19718.394827786
463.17; 16.334561; 19735.022706107
464.19; 15.676856; 19750.981068762
465.21; 15.042253; 19766.293432717
466.22; 14.441315; 19780.994067827
467.24; 13.884021; 19795.127401934
468.26; 13.376231; 19808.743828183
469.28; 12.918051; 19821.89384693
470.30; 12.504707; 19834.62309885
471.31; 12.129544; 19846.970450876
472.33; 11.78791; 19858.970034567
473.35; 11.480314; 19870.656498464
474.37; 11.2135; 19882.071357494
475.39; 10.998873; 19893.267735402
476.40; 10.848683; 19904.311226057
477.42; 10.771243; 19915.275886467
478.44; 10.766821; 19926.236045156
479.46; 10.825626; 19937.256065393
480.48; 10.928635; 19948.380944111
481.49; 11.051042; 19959.630428455
482.51; 11.167342; 19970.998300729
483.53; 11.256562; 19982.456994698
484.55; 11.306231; 19993.966250059
485.57; 11.314098; 20005.483513386
486.58; 11.28729; 20016.973488016
487.60; 11.239315; 20028.414625712
488.62; 11.185767; 20039.801254174
489.64; 11.139876; 20051.141167149
490.66; 11.108941; 20062.449589419
491.67; 11.092477; 20073.741252153
492.69; 11.082482; 20085.022740332
493.71; 11.065792; 20096.287239078
494.73; 11.028036; 20107.513303591
495.74; 10.958286; 20118.668365437
496.76; 10.853252; 20129.716507428
497.78; 10.719827; 20140.628828528
498.80; 10.575068; 20151.393791519
499.82; 10.443293; 20162.024613007
500.83; 10.350743; 20172.561222463
501.85; 10.319054; 20183.065574528
502.87; 10.359279; 20193.610873926
503.89; 10.468224; 20204.267074212
504.91; 10.628346; 20215.086272116
505.92; 10.811475; 20226.091886791
506.94; 10.985476; 20237.274626875
507.96; 11.122077; 20248.596420902
508.98; 11.203652; 20260.001255203
510.00; 11.22706; 20271.429917368
511.01; 11.203493; 20282.834590207
512.03; 11.154509; 20294.189399214
513.05; 11.10549; 20305.494309306
514.07; 11.078516; 20316.771760172
515.09; 11.086651; 20328.057491993
516.10; 11.131162; 20339.38853409
517.12; 11.202222; 20350.791913129
518.14; 11.282693; 20362.277207811
519.16; 11.353772; 20373.834857277
520.18; 11.40095; 20385.440532124
521.19; 11.418767; 20397.06434378
522.21; 11.413255; 20408.682545209
523.23; 11.401562; 20420.288843401
524.25; 11.408815; 20431.902524925
525.27; 11.462848; 20443.571209792
526.28; 11.587782; 20455.367071907
527.30; 11.797734; 20467.376656315
528.32; 12.092027; 20479.685817729
529.34; 12.453143; 20492.362579863
530.36; 12.848291; 20505.441586165
531.37; 13.234736; 20518.913976496
532.39; 13.568143; 20532.725760715
533.41; 13.812272; 20546.786057539
534.43; 13.947699; 20560.984212832
535.45; 13.977186; 20575.212384794
536.46; 13.92597; 20589.388420971
537.48; 13.836528; 20603.473408918
538.50; 13.758993; 20617.479469816
539.52; 13.739777; 20631.465969988
540.54; 13.811628; 20645.525611326
541.55; 13.987983; 20659.764774582
542.57; 14.263129; 20674.284024517
543.59; 14.617764; 20689.164277777
544.61; 15.027781; 20704.461910187
545.62; 15.473095; 20720.212853083
546.64; 15.943558; 20736.442707075
547.66; 16.440292; 20753.178214929
548.68; 16.972673; 20770.455663869
549.70; 17.552853; 20788.323710666
550.71; 18.190454; 20806.840807802
551.73; 18.889621; 20826.069626519
552.75; 19.649201; 20846.071664804
553.77; 20.465215; 20866.90437006
554.79; 21.333772; 20888.621229523
555.80; 22.252756; 20911.273574394
556.82; 23.221873; 20934.912439236
557.84; 24.242395; 20959.590151521
558.86; 25.318989; 20985.363789982
559.88; 26.465731; 21012.304762096
560.89; 27.716358; 21040.518818914
561.91; 29.135837; 21070.177843697
562.93; 30.827694; 21101.559106115
563.95; 32.930838; 21135.081278017
564.97; 35.60163; 21171.32220088
565.98; 38.981608; 21211.003795911
567.00; 43.157; 21254.935760074
568.02; 48.120829; 21303.920687047
569.04; 53.749868; 21358.635733461
570.06; 59.805897; 21419.515556367
571.07; 65.964085; 21486.664148745
572.09; 71.863096; 21559.81767954
573.11; 77.164441; 21638.367750466
574.13; 81.605417; 21721.438543231
575.15; 85.031948; 21807.997397008
576.16; 87.404161; 21896.971061382
577.18; 88.77629; 21987.341493659
578.20; 89.26036; 22078.204688587
579.22; 88.987291; 22168.789910502
580.24; 88.078248; 22258.449766286
581.25; 86.633898; 22346.639335559
582.27; 84.741793; 22432.902824276
583.29; 82.495448; 22516.879630318
584.31; 80.015023; 22598.331470684
585.33; 77.460143; 22677.18255327
