#Wavenumber (cm^-1); Spectrum (K*cm*km*mol^-1); Integral (K*km*mol^-1)
0.00; 24.142936; 24.576467027474
1.02; 25.270021; 50.300257937228
2.04; 28.531672; 79.344268416557
3.05; 33.59968; 113.54729283595
4.07; 40.017722; 154.28360700951
5.09; 47.302654; 202.43566747689
6.11; 55.032305; 258.45617965889
7.13; 62.894566; 322.48013377996
8.14; 70.6914; 394.44092834638
9.16; 78.311073; 474.15822144753
10.18; 85.693341; 561.39034488912
11.20; 92.810748; 655.86768099531
12.22; 99.675929; 757.3334754096
13.23; 106.36687; 865.61036250356
14.25; 113.04858; 980.68894209755
15.27; 119.96752; 1102.8107055674
16.29; 127.40614; 1232.5046534745
17.31; 135.60383; 1370.5434980939
18.32; 144.66961; 1517.8109151159
19.34; 154.52079; 1675.106410678
20.36; 164.8774; 1842.9444852025
21.38; 175.32383; 2021.4165752477
22.40; 185.42507; 2210.1712942009
23.41; 194.86352; 2408.5339468697
24.43; 203.55257; 2615.7416816732
25.45; 211.68834; 2831.2312738636
26.47; 219.71898; 3054.8957144716
27.48; 228.2361; 3287.2302128416
28.50; 237.81559; 3529.3162186242
29.52; 248.85014; 3782.6349264579
30.54; 261.41806; 4048.7472357521
31.56; 275.22418; 4328.9135763129
32.57; 289.63165; 4623.7460929888
33.59; 303.7827; 4932.9837776359
34.61; 316.78671; 5255.4589784157
35.63; 327.93771; 5589.2854140911
36.65; 336.9146; 5932.2499411319
37.66; 343.91573; 6282.3413095889
38.68; 349.68816; 6638.3087618285
39.70; 355.43034; 7000.1215144903
40.72; 362.57279; 7369.2049718526
41.74; 372.47106; 7748.3644361563
42.75; 386.07162; 8141.368685528
43.77; 403.62641; 8552.2429528396
44.79; 424.53014; 8984.3963119347
45.81; 447.33383; 9439.7628491283
46.83; 469.95129; 9918.1529834661
47.84; 490.03033; 10416.982708971
48.86; 505.41881; 10931.477250595
49.88; 514.62726; 11455.345597246
50.90; 517.18301; 11981.815581781
51.92; 513.7889; 12504.830507658
52.93; 506.23876; 13020.159723652
53.95; 497.09487; 13526.180850212
54.97; 489.18766; 14024.152779678
55.99; 485.04288; 14517.90549689
57.01; 486.36402; 15013.003084423
58.02; 493.69204; 15515.560275077
59.04; 506.32717; 16030.97948372
60.06; 522.53696; 16562.899563854
61.08; 540.0023; 17112.598602503
62.10; 556.38931; 17678.978906506
63.11; 569.89794; 18259.110413858
64.13; 579.6414; 18849.160345893
65.15; 585.75711; 19445.435807565
66.17; 589.22816; 20045.244646954
67.19; 591.48139; 20647.347181609
68.20; 593.89603; 21251.90770839
69.22; 597.38146; 21860.016256344
70.24; 602.15478; 22472.983842272
71.26; 607.77572; 23091.673295694
72.27; 613.40493; 23716.093042283
73.29; 618.17408; 24345.367582482
74.31; 621.52163; 24978.049778358
75.33; 623.37013; 25612.613675234
76.35; 624.09033; 26247.910698864
77.36; 624.28583; 26883.406732648
78.38; 624.50539; 27519.126266934
79.40; 625.01623; 28155.365821803
80.42; 625.74208; 28792.344256037
81.44; 626.39486; 29429.987190616
82.45; 626.74163; 30067.983122807
83.47; 626.88414; 30706.124123369
84.49; 627.41595; 31344.806483558
85.51; 629.36695; 31985.474878837
86.53; 633.92984; 32630.788096414
87.54; 642.05337; 33284.370717436
88.56; 654.04623; 33950.161560178
89.58; 669.33929; 34631.520074937
90.60; 686.50123; 35330.34869819
91.62; 703.51482; 36046.496423873
92.63; 718.23198; 36777.625590928
93.65; 728.86925; 37519.583034962
94.67; 734.39979; 38267.170332021
95.69; 734.74159; 39015.105563807
96.71; 730.71257; 39758.939428649
97.72; 723.79409; 40495.730582214
98.74; 715.78877; 41224.372665949
99.76; 708.46704; 41945.561539364
100.78; 703.27447; 42661.464606259
101.80; 701.1362; 43375.190997617
102.81; 702.36365; 44090.166888556
103.83; 706.65451; 44809.510689626
104.85; 713.17646; 45535.49355233
105.87; 720.73053; 46269.166134111
106.89; 727.98622; 47010.224689365
107.90; 733.76311; 47757.16387494
108.92; 737.30729; 48507.710882483
109.94; 738.48929; 49259.461115943
110.96; 737.85139; 50010.561995426
111.98; 736.46371; 50760.25027542
112.99; 735.60664; 51509.066087654
114.01; 736.36181; 52258.650631704
115.03; 739.23885; 53011.163885276
116.05; 743.96791; 53768.491118386
117.07; 749.54183; 54531.492360105
118.08; 754.5094; 55299.550371433
119.10; 757.43143; 56070.582885685
120.12; 757.34908; 56841.531571758
121.14; 754.10405; 57609.176953237
122.15; 748.39897; 58371.014811379
123.17; 741.5764; 59125.907589097
124.19; 735.19297; 59874.302308212
125.21; 730.53529; 60617.955706388
126.23; 728.24053; 61359.273144472
127.24; 728.14296; 62100.49125253
128.26; 729.38526; 62842.973971096
129.28; 730.74275; 63586.83855447
130.30; 731.04101; 64331.006761683
131.32; 729.52667; 65073.633431736
132.33; 726.07813; 65812.749631543
133.35; 721.20504; 66546.905241737
134.37; 715.85563; 67275.615387006
135.39; 711.10607; 67999.490684554
136.41; 707.83061; 68720.031697523
137.42; 706.44314; 69439.160326678
138.44; 706.7702; 70158.621888201
139.46; 708.07597; 70879.41266711
140.48; 709.22467; 71601.37278029
141.50; 708.94048; 72323.043595264
142.51; 706.11019; 73041.833297789
143.53; 700.06715; 73754.471447078
144.55; 690.79422; 74457.670157235
145.57; 678.99186; 75148.854572449
146.59; 665.97775; 75826.791179416
147.60; 653.41914; 76491.943664564
148.62; 642.94359; 77146.432499708
149.64; 635.71633; 77793.56428882
150.66; 632.09703; 78437.011785903
151.68; 631.48174; 79079.832949573
152.69; 632.3919; 79723.580618227
153.71; 632.8025; 80367.746261406
154.73; 630.62662; 81009.696943548
155.75; 624.22058; 81645.12655844
156.77; 612.76458; 82268.894456459
157.78; 596.4127; 82876.016847046
158.80; 576.18268; 83462.545954121
159.82; 553.6405; 84026.128096091
160.84; 530.49762; 84566.151786175
161.86; 508.25585; 85083.534306066
162.87; 488.0014; 85580.298673682
163.89; 470.38145; 86059.126696682
164.91; 455.7216; 86523.031623843
165.93; 444.19273; 86975.200651647
166.94; 435.92915; 87418.957710892
167.96; 431.03733; 87857.735111685
168.98; 429.49677; 88294.944290012
170.00; 431.01322; 88733.697147119
171.02; 434.91275; 89176.419560069
172.03; 440.15102; 89624.47430861
173.05; 445.46222; 90077.935625933
174.07; 449.60939; 90535.618581361
175.09; 451.65015; 90995.378948358
176.11; 451.12048; 91454.600131637
177.12; 448.06933; 91910.715377531
178.14; 442.93583; 92361.604940727
179.16; 436.3227; 92805.762626085
180.18; 428.75916; 93242.22095313
181.20; 420.54683; 93670.319479512
182.21; 411.74443; 94089.457543232
183.23; 402.28733; 94498.96868156
184.25; 392.18162; 94898.192643302
185.27; 381.68246; 95286.728921261
186.29; 371.37373; 95664.771351556
187.30; 362.10683; 96033.380473878
188.32; 354.81346; 96394.565268816
189.34; 350.25687; 96751.111652542
190.36; 348.81039; 97106.185580952
191.38; 350.34297; 97462.819601847
192.39; 354.25339; 97823.434265589
193.41; 359.6441; 98189.536439241
194.43; 365.57952; 98561.68061343
195.45; 371.34842; 98939.697279164
196.47; 376.65088; 99323.111617236
197.48; 381.65556; 99711.620508189
198.50; 386.91254; 100105.4807781
199.52; 393.14805; 100505.68852643
200.54; 400.99971; 100913.88893217
201.56; 410.7664; 101332.03139951
202.57; 422.24344; 101761.85700059
203.59; 434.69345; 102204.35617033
204.61; 446.96916; 102659.35148901
205.63; 457.76568; 103125.33720105
206.65; 465.94264; 103599.64670381
207.66; 470.83254; 104078.93391263
208.68; 472.44717; 104559.86474288
209.70; 471.51422; 105039.84587064
210.72; 469.31884; 105517.59220257
211.74; 467.38019; 105993.36507087
212.75; 467.04539; 106468.79712234
213.77; 469.11562; 106946.33657967
214.79; 473.61783; 107428.4590967
215.81; 479.79778; 107916.87253407
216.82; 486.34492; 108411.95067331
217.84; 491.78667; 108912.56828654
218.86; 494.93315; 109416.38887344
219.88; 495.23343; 109920.51513413
220.90; 492.93028; 110422.29689028
221.91; 488.96342; 110920.04054753
222.93; 484.65264; 111413.39601844
223.95; 481.2631; 111903.30108731
224.97; 479.59153; 112391.50456805
225.99; 479.70236; 112879.82086609
227.00; 480.89044; 113369.34658618
228.02; 481.87148; 113859.8709558
229.04; 481.12915; 114349.63966413
230.06; 477.30433; 114835.51487237
231.08; 469.50916; 115313.45493553
232.09; 457.48593; 115779.15586998
233.11; 441.59085; 116228.67629929
234.13; 422.64234; 116658.90796159
235.15; 401.71081; 117067.83223644
236.17; 379.93049; 117454.58507862
237.18; 358.38554; 117819.40609284
238.20; 338.07797; 118163.55488111
239.22; 319.94255; 118489.24259154
240.24; 304.85343; 118799.57022657
241.26; 293.57552; 119098.4174419
242.27; 286.64672; 119390.21143003
243.29; 284.21981; 119679.53493553
244.31; 285.9266; 119970.59587157
245.33; 290.83462; 120266.65296402
246.35; 297.54531; 120569.5412451
247.36; 304.4359; 120879.4438497
248.38; 309.99477; 121195.00515066
249.40; 313.15955; 121513.78805835
250.42; 313.55633; 121832.97487353
251.44; 311.56228; 122150.1318351
252.45; 308.16535; 122463.83086776
253.47; 304.65747; 122773.95902132
254.49; 302.24964; 123081.63611398
255.51; 301.72143; 123388.77550605
256.53; 303.20488; 123697.42498809
257.54; 306.15967; 124009.08231834
258.56; 309.53571; 124324.17631191
259.58; 312.06362; 124641.8436094
260.60; 312.57941; 124960.03596007
261.61; 310.28799; 125275.89574154
262.63; 304.89885; 125586.26961415
263.65; 296.61477; 125888.21064673
264.67; 286.00271; 126179.34906483
265.69; 273.80931; 126458.07512216
266.70; 260.79047; 126723.54856427
267.72; 247.60696; 126975.60176942
268.74; 234.80315; 127214.62124493
269.76; 222.84974; 127441.47265927
270.78; 212.20687; 127657.49009482
271.79; 203.35955; 127864.50133934
272.81; 196.79343; 128064.82856248
273.83; 192.90814; 128261.20072595
274.85; 191.89498; 128456.54153216
275.87; 193.62545; 128653.64388958
276.88; 197.5988; 128854.79093773
277.90; 202.9807; 129061.41653532
278.92; 208.73791; 129273.90272426
279.94; 213.84301; 129491.58568477
280.96; 217.50113; 129712.9924546
281.97; 219.34105; 129936.27218017
282.99; 219.51977; 130159.73383075
284.01; 218.70936; 130382.37052113
285.03; 217.96225; 130604.24669052
286.05; 218.47967; 130826.64956391
287.06; 221.3316; 131051.95558326
288.08; 227.19077; 131283.22598756
289.10; 236.14401; 131523.6104042
290.12; 247.63178; 131775.68887013
291.14; 260.54053; 132040.90788471
292.15; 273.4377; 132319.25566758
293.17; 284.90204; 132609.27365024
294.19; 293.87206; 132908.42272388
295.21; 299.92251; 133213.73089861
296.23; 303.38871; 133522.56751468
297.24; 305.29278; 133833.34239216
298.26; 307.07723; 134145.93376412
299.28; 310.20614; 134461.71023049
300.30; 315.73631; 134783.1161668
301.32; 323.97561; 135112.90935722
302.33; 334.32676; 135453.2395726
303.35; 345.36557; 135804.80681988
304.37; 355.13776; 136166.32173387
305.39; 361.59707; 136534.4119447
306.41; 363.06898; 136904.00050331
307.42; 358.62055; 137269.06075181
308.44; 348.24764; 137623.56182429
309.46; 332.84572; 137962.38440543
310.48; 313.99029; 138282.01297483
311.49; 293.59973; 138580.88482584
312.51; 273.57351; 138859.37084945
313.53; 255.49001; 139119.44865286
314.55; 240.41679; 139364.18256571
315.57; 228.84688; 139597.138818
316.58; 220.7409; 139821.8435251
317.60; 215.63611; 140041.35177974
318.62; 212.78326; 140257.95595473
319.64; 211.28306; 140473.03299404
320.66; 210.21005; 140687.01775268
321.67; 208.72195; 140899.48769414
322.69; 206.15511; 141109.3446956
323.71; 202.10117; 141315.07496753
324.73; 196.45362; 141515.05627639
325.75; 189.40974; 141707.86722229
326.76; 181.41956; 141892.54450397
327.78; 173.08581; 142068.73838999
328.80; 165.03462; 142236.73651511
329.82; 157.78743; 142397.35730502
330.84; 151.66626; 142551.74701532
331.85; 146.75501; 142701.13728464
332.87; 142.92155; 142846.62525846
333.89; 139.88721; 142989.02440109
334.91; 137.31675; 143128.80693099
335.93; 134.89961; 143266.12891691
336.94; 132.40086; 143400.90727988
337.96; 129.67519; 143532.91102769
338.98; 126.65199; 143661.83728959
340.00; 123.30879; 143787.36032012
341.02; 119.65078; 143909.15965114
342.03; 115.70657; 144026.94394561
343.05; 111.53924; 144140.48608335
344.07; 107.26222; 144249.67439306
345.09; 103.04608; 144354.57085865
346.11; 99.10645; 144455.45694827
347.12; 95.671721; 144552.84663171
348.14; 92.939388; 144647.45491839
349.16; 91.035404; 144740.12503138
350.18; 89.990663; 144831.73164255
351.20; 89.742171; 144923.08530029
352.21; 90.157; 145014.86123586
353.23; 91.068831; 145107.56537631
354.25; 92.313353; 145201.53638666
355.27; 93.751053; 145296.97091259
356.28; 95.27271; 145393.95442014
357.30; 96.79081; 145492.48328788
358.32; 98.22552; 145592.47262863
359.34; 99.494765; 145693.7540057
360.36; 100.51424; 145796.07316037
361.37; 101.20718; 145899.09770176
362.39; 101.51856; 146002.43921785
363.41; 101.42628; 146105.68679875
364.43; 100.94418; 146208.44362191
365.45; 100.1164; 146310.35779261
366.46; 99.007458; 146411.14311281
367.48; 97.694819; 146510.59222325
368.50; 96.268744; 146608.58965002
369.52; 94.839739; 146705.13241143
370.54; 93.547931; 146800.36016845
371.55; 92.565282; 146894.58763137
372.57; 92.082318; 146988.32345713
373.59; 92.2764; 147082.25685046
374.61; 93.266671; 147177.19829658
375.63; 95.068351; 147273.97377571
376.64; 97.562823; 147373.28851955
377.66; 100.49775; 147475.59088763
378.68; 103.52359; 147580.97343589
379.70; 106.2617; 147689.1432654
380.72; 108.38803; 147799.47759888
381.73; 109.70978; 147911.15742577
382.75; 110.21231; 148023.34880428
383.77; 110.06021; 148135.38535364
384.79; 109.54966; 148246.90217698
385.81; 109.02303; 148357.88291195
386.82; 108.76936; 148468.60542457
387.84; 108.93987; 148579.50151274
388.86; 109.50529; 148690.97316897
389.88; 110.27052; 148803.22379699
390.90; 110.94525; 148916.16127718
391.91; 111.25079; 149029.4097858
392.93; 111.02997; 149142.43350302
393.95; 110.32308; 149254.73763718
394.97; 109.38116; 149366.08293696
395.99; 108.60691; 149476.64008517
397.00; 108.43831; 149587.02560575
398.02; 109.2117; 149698.19840466
399.04; 111.05199; 149811.24454151
400.06; 113.83194; 149927.12054889
401.07; 117.22051; 150046.44597437
402.09; 120.80846; 150169.42377127
403.11; 124.26876; 150295.92401129
404.13; 127.49235; 150425.70572555
405.15; 130.64385; 150558.69552802
406.16; 134.10903; 150695.21273232
407.18; 138.34628; 150836.04327538
408.20; 143.69455; 150982.31812169
409.22; 150.21313; 151135.22861027
410.24; 157.62366; 151295.68269406
411.25; 165.38989; 151464.04246125
412.27; 172.91838; 151640.06591174
413.29; 179.81089; 151823.1056339
414.31; 186.06938; 152012.5162365
415.33; 192.16148; 152208.12832875
416.34; 198.89814; 152410.59805554
417.36; 207.14462; 152621.46234432
418.38; 217.45359; 152842.82071065
419.40; 229.75071; 153076.69701509
420.42; 243.19823; 153324.26232031
421.43; 256.30904; 153585.17386191
422.45; 267.29864; 153857.27234702
423.47; 274.57493; 154136.77778134
424.49; 277.2081; 154418.96366916
425.51; 275.21982; 154699.12557085
426.52; 269.58571; 154973.55218699
427.54; 261.94159; 155240.19742545
428.56; 254.08807; 155498.84811368
429.58; 247.46141; 155750.75314616
430.60; 242.75382; 155997.86605694
431.61; 239.81453; 156241.98690507
432.63; 237.86289; 156484.12105798
433.65; 235.93113; 156724.28876749
434.67; 233.37042; 156961.84978583
435.69; 230.22961; 157196.21359425
436.70; 227.36349; 157427.6598189
437.72; 226.22747; 157657.94962387
438.74; 228.43223; 157890.4837806
439.76; 235.22086; 158129.92846812
440.78; 247.05823; 158381.4230877
441.79; 263.478; 158649.63232165
442.81; 283.23336; 158937.95165504
443.83; 304.68218; 159248.10496718
444.85; 326.25013; 159580.2135191
445.87; 346.79027; 159933.23104615
446.88; 365.7048; 160305.50275534
447.90; 382.79441; 160695.17094476
448.92; 397.91431; 161100.23054341
449.94; 410.59844; 161518.20203222
450.95; 419.83049; 161945.57135486
451.97; 424.08647; 162377.27308621
452.99; 421.66688; 162806.51177815
454.01; 411.22018; 163225.11618076
455.03; 392.27694; 163624.4371794
456.04; 365.59846; 163996.60063961
457.06; 333.20141; 164335.78529721
458.08; 298.02897; 164639.16593078
459.10; 263.35938; 164907.25441766
460.12; 232.12941; 165143.55214288
461.13; 206.37373; 165353.63169037
462.15; 186.9344; 165543.9228455
463.17; 173.49878; 165720.53711236
464.19; 164.91508; 165888.4135524
465.21; 159.6539; 166050.93433532
466.22; 156.25546; 166209.99565334
467.24; 153.63353; 166366.3879585
468.26; 151.17771; 166520.2803462
469.28; 148.67701; 166671.62712565
470.30; 146.14648; 166820.39793282
471.31; 143.65648; 166966.63403478
472.33; 141.23935; 167110.40959353
473.35; 138.89699; 167251.80073502
474.37; 136.68055; 167390.9356404
475.39; 134.78085; 167528.13672886
476.40; 133.5686; 167664.10380393
477.42; 133.55149; 167800.05345838
478.44; 135.25584; 167937.73806614
479.46; 139.07529; 168079.31071124
480.48; 145.1421; 168227.05910354
481.49; 153.26546; 168383.07672877
482.51; 162.95267; 168548.95551932
483.53; 173.49703; 168725.56800584
484.55; 184.09549; 168912.9692721
485.57; 193.95674; 169110.40886315
486.58; 202.37439; 169316.41726343
487.60; 208.76263; 169528.92861161
488.62; 212.6696; 169745.41708975
489.64; 213.79035; 169963.04643561
490.66; 211.99299; 170178.84615171
491.67; 207.356; 170389.92560747
492.69; 200.19864; 170593.71918645
493.71; 191.08092; 170788.23131286
494.73; 180.75546; 170972.23256863
495.74; 170.0708; 171145.35730234
496.76; 159.84404; 171308.07164122
497.78; 150.73421; 171461.51256135
498.80; 143.14891; 171607.23197094
499.82; 137.20687; 171746.90264394
500.83; 132.76144; 171882.04806105
501.85; 129.47277; 172013.84575652
502.87; 126.90542; 172143.029993
503.89; 124.6259; 172269.89378109
504.91; 122.28094; 172394.37049707
505.92; 119.6466; 172516.16557788
506.94; 116.64806; 172634.90826512
507.96; 113.35461; 172750.29836682
508.98; 109.95649; 172862.22933009
510.00; 106.72828; 172970.87410897
511.01; 103.98299; 173076.72430271
512.03; 102.02102; 173180.57729751
513.05; 101.07971; 173283.47207718
514.07; 101.29107; 173386.58201767
515.09; 102.65538; 173491.08076372
516.10; 105.03592; 173598.00279934
517.12; 108.17633; 173708.12163062
518.14; 111.73702; 173821.86509727
519.16; 115.34397; 173939.28027936
520.18; 118.64102; 174060.05171864
521.19; 121.33755; 174183.56811234
522.21; 123.24426; 174309.0254525
523.23; 124.29196; 174435.5493033
524.25; 124.53042; 174562.3158986
525.27; 124.10719; 174688.65166318
526.28; 123.23; 174814.09448971
527.30; 122.12063; 174938.40802425
528.32; 120.97104; 175061.55132754
529.34; 119.91322; 175183.61781433
530.36; 119.01055; 175304.76541919
531.37; 118.27184; 175425.1610437
532.39; 117.68113; 175544.95535151
533.41; 117.23064; 175664.29108122
534.43; 116.94325; 175783.33426728
535.45; 116.87592; 175902.30890833
536.46; 117.10387; 176021.51559591
537.48; 117.69436; 176141.32337426
538.50; 118.68294; 176262.13748752
539.52; 120.06383; 176384.35728351
540.54; 121.79844; 176508.34284302
541.55; 123.8374; 176634.40397261
542.57; 126.14459; 176762.8137267
543.59; 128.71155; 176893.83652953
544.61; 131.55549; 177027.75434619
545.62; 134.70314; 177164.87633402
546.64; 138.16917; 177305.52659002
547.66; 141.94053; 177450.01592683
548.68; 145.97397; 177598.61112747
549.70; 150.2069; 177751.51527493
550.71; 154.5752; 177908.86615788
551.73; 159.0289; 178070.75071382
552.75; 163.53996; 178237.22733805
553.77; 168.102; 178408.34791765
554.79; 172.72737; 178584.17692186
555.80; 177.44829; 178764.81161913
556.82; 182.3249; 178950.41049772
557.84; 187.45697; 179141.2336091
558.86; 192.99126; 179337.69038584
559.88; 199.11661; 179540.38250637
560.89; 206.04464; 179750.12706143
561.91; 213.98159; 179967.9510858
562.93; 223.10273; 180195.06003968
563.95; 233.54011; 180432.7937976
564.97; 245.38736; 180682.58754552
565.98; 258.71555; 180945.94881385
567.00; 273.587; 181224.44857452
568.02; 290.05422; 181519.71125145
569.04; 308.13882; 181833.38327444
570.06; 327.79629; 182167.06575089
571.07; 348.88018; 182522.21071456
572.09; 371.11952; 182899.99437053
573.11; 394.11597; 183301.1874239
574.13; 417.35853; 183726.04039987
575.15; 440.25098; 184174.19690373
576.16; 462.15435; 184644.65009091
577.18; 482.45998; 185135.77353202
578.20; 500.71752; 185645.48235785
579.22; 516.83338; 186171.59643916
580.24; 531.32365; 186712.46098677
581.25; 545.55855; 187267.81604585
582.27; 561.8959; 187839.80183007
583.29; 583.59511; 188433.87647193
584.31; 614.45015; 189059.36021275
585.33; 658.17605; 189729.35502654
