#Wavenumber (cm^-1); Spectrum (K*cm*km*mol^-1); Integral (K*km*mol^-1)
0.00; 0.42507463; 0.43270763469786
1.02; 0.43977683; 0.88038147454058
2.04; 0.48383017; 1.3728997110437
3.05; 0.55674686; 1.9396439914157
4.07; 0.65680924; 2.6082474596243
5.09; 0.78028084; 3.4025396839397
6.11; 0.92114953; 4.340230151744
7.13; 1.0717163; 5.4311911126989
8.14; 1.223961; 6.6771305938537
9.16; 1.3712403; 8.072994098161
10.18; 1.5096826; 9.6097857963355
11.20; 1.6387285; 11.277940702298
12.22; 1.7606041; 13.070159690459
13.23; 1.8789431; 14.982842662987
14.25; 1.9971243; 17.015828992768
15.27; 2.1169877; 19.170831129016
16.29; 2.2384107; 21.449436618281
17.31; 2.359841; 23.851652901068
18.32; 2.4794751; 26.37565152822
19.34; 2.5965138; 29.018790549053
20.36; 2.7119307; 31.779418946743
21.38; 2.8284334; 34.658642084334
22.40; 2.9496637; 37.661272442734
23.41; 3.0789909; 40.795552332872
24.43; 3.2183806; 44.071724908095
25.45; 3.3677209; 47.499919411433
26.47; 3.5247399; 51.087952531364
27.48; 3.6853874; 54.839517862839
28.50; 3.8444104; 58.752961708153
29.52; 3.9958906; 62.82060588533
30.54; 4.1336785; 67.028512238091
31.56; 4.2518431; 71.356705002517
32.57; 4.3453317; 75.780065168456
33.59; 4.4109404; 80.270212168965
34.61; 4.448466; 84.798558644934
35.63; 4.4616771; 89.340353388421
36.65; 4.4586334; 93.879049817565
37.66; 4.4509979; 98.409973560938
38.68; 4.4522909; 102.94221353334
39.70; 4.4754247; 107.49800277194
40.72; 4.530145; 112.10949487257
41.74; 4.6210779; 116.81355271834
42.75; 4.7468989; 121.64569093957
43.77; 4.900786; 126.63447959862
44.79; 5.0719515; 131.79750731177
45.81; 5.2478072; 137.13954853957
46.83; 5.4162734; 142.65308109495
47.84; 5.5678547; 148.32091690653
48.86; 5.6972694; 154.12049129563
49.88; 5.8045187; 160.02924090187
50.90; 5.8952808; 166.03038237252
51.92; 5.9804574; 172.11822996461
52.93; 6.0747079; 178.30202047724
53.95; 6.1939603; 184.6072047348
54.97; 6.352205; 191.07347536086
55.99; 6.5582324; 197.74947297038
57.01; 6.8131819; 204.68499814901
58.02; 7.1096757; 211.92234121837
59.04; 7.4328667; 219.48867874673
60.06; 7.7630928; 227.39117226476
61.08; 8.0792639; 235.61551431089
62.10; 8.3618879; 244.12755538746
63.11; 8.594914; 252.87680693045
64.13; 8.7662256; 261.80044629604
65.15; 8.8673559; 270.82703195723
66.17; 8.8934291; 279.88015905588
67.19; 8.8441871; 288.88315985633
68.20; 8.7262396; 297.76609520108
69.22; 8.5556938; 306.47542226192
70.24; 8.3595657; 314.98509945249
71.26; 8.1743216; 323.30620605678
72.27; 8.0407063; 331.49129812485
73.29; 7.9954754; 339.63034701853
74.31; 8.0621603; 347.83727831862
75.33; 8.243894; 356.22920671798
76.35; 8.5210836; 364.90330217248
77.36; 8.8553138; 373.9176295077
78.38; 9.1987452; 383.28155521654
79.40; 9.5062571; 392.95851476757
80.42; 9.7464957; 402.88002679094
81.44; 9.9083161; 412.96626497281
82.45; 10.00076; 423.1466069688
83.47; 10.047057; 433.37407770385
84.49; 10.075253; 443.63025035247
85.51; 10.109092; 453.92086969327
86.53; 10.162379; 464.26573253385
87.54; 10.238357; 474.68793776753
88.56; 10.333493; 485.20698728526
89.58; 10.443282; 495.8377982053
90.60; 10.567075; 506.59462433715
91.62; 10.709608; 517.49654303523
92.63; 10.878642; 528.57053135889
93.65; 11.079946; 539.84943828662
94.67; 11.312151; 551.36472023539
95.69; 11.564094; 563.13646846824
96.71; 11.816177; 575.1648263687
97.72; 12.045548; 587.42667489002
98.74; 12.233192; 599.87953696376
99.76; 12.370154; 612.47182012531
100.78; 12.460383; 625.1559522349
101.80; 12.51896; 637.89971368567
102.81; 12.566267; 650.69163098309
103.83; 12.620195; 663.53844450307
104.85; 12.689257; 676.45556088357
105.87; 12.769096; 689.45394940879
106.89; 12.843629; 702.52820993314
107.90; 12.890419; 715.65009993052
108.92; 12.888332; 728.76986544077
109.94; 12.824843; 741.82500256454
110.96; 12.700482; 754.75354540161
111.98; 12.528959; 767.50748529554
112.99; 12.332991; 780.06193757052
114.01; 12.137247; 792.41713131403
115.03; 11.960775; 804.59268387057
116.05; 11.811361; 816.61613918036
117.07; 11.683651; 828.5095913029
118.08; 11.561611; 840.27881228042
119.10; 11.424529; 851.9084893669
120.12; 11.254636; 863.36522305402
121.14; 11.043928; 874.60746469063
122.15; 10.797993; 885.59935611093
123.17; 10.535623; 896.32416587542
124.19; 10.284255; 906.79309354225
125.21; 10.072644; 917.04661053854
126.23; 9.9229887; 927.14778486004
127.24; 9.8449127; 937.16948117188
128.26; 9.8331203; 947.17917332314
129.28; 9.8693885; 957.22578491022
130.30; 9.9282301; 967.33229474477
131.32; 9.9844648; 977.49604909716
132.33; 10.020411; 987.69639509362
133.35; 10.030603; 997.90711633549
134.37; 10.022751; 1008.1098446017
135.39; 10.014805; 1018.3044842628
136.41; 10.029113; 1028.5136880843
137.42; 10.085409; 1038.780199467
138.44; 10.194606; 1049.1578687199
139.46; 10.354981; 1059.698792726
140.48; 10.551639; 1070.4399060419
141.50; 10.759198; 1081.3923053573
142.51; 10.946843; 1092.5357188749
143.53; 11.084381; 1103.8191406013
144.55; 11.14782; 1115.1671405274
145.57; 11.12325; 1126.4901286234
146.59; 11.008377; 1137.6961811884
147.60; 10.811725; 1148.7020507931
148.62; 10.550105; 1159.4416022325
149.64; 10.245328; 1169.8709041918
150.66; 9.9211607; 1179.970217703
151.68; 9.6011953; 1189.7438202597
152.69; 9.3078096; 1199.2187688323
153.71; 9.0618286; 1208.4433192635
154.73; 8.8821744; 1217.4849894774
155.75; 8.7848049; 1226.4275418122
156.77; 8.7806311; 1235.3658453902
157.78; 8.8727252; 1244.3978967209
158.80; 9.0537208; 1253.6141937669
159.82; 9.3045854; 1263.0858602316
160.84; 9.5957409; 1272.8539103645
161.86; 9.8908386; 1282.922357258
162.87; 10.152589; 1293.2572552304
163.89; 10.349248; 1303.7923428355
164.91; 10.460001; 1314.4401722613
165.93; 10.477784; 1325.1061046167
166.94; 10.40886; 1335.7018747046
167.96; 10.269548; 1346.1558315145
168.98; 10.08141; 1356.4182720314
170.00; 9.8665386; 1366.4619826015
171.02; 9.6443573; 1376.2795222018
172.03; 9.4305356; 1385.8794005151
173.05; 9.2376684; 1395.2829482825
174.07; 9.0766547; 1404.5225911321
175.09; 8.9575236; 1413.6409636418
176.11; 8.8888589; 1422.6894383909
177.12; 8.8757745; 1431.724593869
178.14; 8.9172179; 1440.8019369229
179.16; 9.0038736; 1449.967491667
180.18; 9.1178928; 1459.2491130448
181.20; 9.2350994; 1468.6500457522
182.21; 9.3294566; 1478.147029964
183.23; 9.3787545; 1487.6941973795
184.25; 9.3699983; 1497.2324513308
185.27; 9.30298; 1506.7024835366
186.29; 9.1909887; 1516.0585134057
187.30; 9.058355; 1525.2795278897
188.32; 8.9353183; 1534.3752963228
189.34; 8.851337; 1543.3855754827
190.36; 8.8283203; 1552.3724245907
191.38; 8.8753057; 1561.4071027656
192.39; 8.9858655; 1570.5543261227
193.41; 9.139027; 1579.8574612914
194.43; 9.3037934; 1589.3283215108
195.45; 9.4465387; 1598.9444903113
196.47; 9.5397564; 1608.6555506993
197.48; 9.5700773; 1618.3974764328
198.50; 9.5433566; 1628.112201601
199.52; 9.4851089; 1637.7676331714
200.54; 9.435637; 1647.3727044816
201.56; 9.4406276; 1656.9828560236
202.57; 9.5393835; 1666.6935368321
203.59; 9.7537581; 1676.622441725
204.61; 10.080911; 1686.8843745009
205.63; 10.492114; 1697.5648938191
206.65; 10.938211; 1708.6995202871
207.66; 11.360495; 1720.2640140162
208.68; 11.704231; 1732.1784163869
209.70; 11.931349; 1744.3240145799
210.72; 12.029141; 1756.569160673
211.74; 12.012969; 1768.7978448909
212.75; 11.922616; 1780.9345536316
213.77; 11.813493; 1792.9601799212
214.79; 11.745015; 1804.9160981628
215.81; 11.768821; 1816.8962495877
216.82; 11.91925; 1829.0295319556
217.84; 12.207749; 1841.4564932597
218.86; 12.621975; 1854.3051190047
219.88; 13.129528; 1867.6704121272
220.90; 13.685462; 1881.6016221572
221.91; 14.242152; 1896.0995182474
222.93; 14.759598; 1911.1241516581
223.95; 15.213975; 1926.6113215251
224.97; 15.602313; 1942.4938032479
225.99; 15.941781; 1958.7218484028
227.00; 16.263213; 1975.2770972613
228.02; 16.600082; 1992.1752646153
229.04; 16.975657; 2009.4557510472
230.06; 17.392061; 2027.1601184543
231.08; 17.824886; 2045.3050828172
232.09; 18.225703; 2063.8580623733
233.11; 18.532532; 2082.7233797447
234.13; 18.685727; 2101.744643928
235.15; 18.644783; 2120.724228621
236.17; 18.400854; 2139.4555036642
237.18; 17.98092; 2157.7593046879
238.20; 17.442007; 2175.5145152175
239.22; 16.857017; 2192.6742307649
240.24; 16.296452; 2209.2633153243
241.26; 15.811572; 2225.3588128799
242.27; 15.42396; 2241.0597384907
243.29; 15.124246; 2256.4555687661
244.31; 14.879676; 2271.6024372972
245.33; 14.647435; 2286.5128941023
246.35; 14.389085; 2301.1603617336
247.36; 14.081609; 2315.4948323961
248.38; 13.722184; 2329.4634231788
249.40; 13.326204; 2343.0289242152
250.42; 12.920332; 2356.1812645337
251.44; 12.533597; 2368.9399257484
252.45; 12.189661; 2381.348474615
253.47; 11.902289; 2393.4644916946
254.49; 11.674629; 2405.3487605631
255.51; 11.501538; 2417.0568298255
256.53; 11.373535; 2428.6345978768
257.54; 11.280939; 2440.1181069653
258.56; 11.217195; 2451.5367275816
259.58; 11.180938; 2462.9184399311
260.60; 11.176627; 2474.2957636541
261.61; 11.213673; 2485.7107987372
262.63; 11.303979; 2497.2177618095
263.65; 11.458026; 2508.8815377903
264.67; 11.680165; 2520.7714419352
265.69; 11.964482; 2532.9507683852
266.70; 12.29304; 2545.4645524058
267.72; 12.63812; 2558.3296131613
268.74; 12.968982; 2571.5314766931
269.76; 13.261908; 2585.031526668
270.78; 13.510531; 2598.7846643177
271.79; 13.732442; 2612.7636973732
272.81; 13.968575; 2626.9831038571
273.83; 14.273917; 2641.513335227
274.85; 14.701141; 2656.47846236
275.87; 15.281754; 2672.0346290008
276.88; 16.010974; 2688.3331099109
277.90; 16.842036; 2705.4775755106
278.92; 17.692919; 2723.4882036612
279.94; 18.464413; 2742.2841793584
280.96; 19.064474; 2761.6909913104
281.97; 19.431486; 2781.4714057646
282.99; 19.54922; 2801.3716676309
284.01; 19.449016; 2821.1699271048
285.03; 19.199009; 2840.7136895241
286.05; 18.884404; 2859.9371982911
287.06; 18.585531; 2878.8564673481
288.08; 18.360475; 2897.5466386358
289.10; 18.236874; 2916.1109897088
290.12; 18.213767; 2934.6518181004
291.14; 18.270761; 2953.2506638986
292.15; 18.379668; 2971.9603724843
293.17; 18.513708; 2990.8065280467
294.19; 18.651326; 3009.7927730015
295.21; 18.774539; 3028.9044435376
296.23; 18.864274; 3048.1074602691
297.24; 18.896333; 3067.3431122801
298.26; 18.841028; 3086.5224659391
299.28; 18.667542; 3105.5252180372
300.30; 18.35171; 3124.2064666778
301.32; 17.884148; 3142.411757128
302.33; 17.275317; 3159.9972846395
303.35; 16.555253; 3176.8498177687
304.37; 15.767758; 3192.9007149966
305.39; 14.96102; 3208.1303877818
306.41; 14.177879; 3222.5628570575
307.42; 13.448942; 3236.2532998612
308.44; 12.790439; 3249.2734151081
309.46; 12.20677; 3261.6993804084
310.48; 11.695893; 3273.605294745
311.49; 11.254804; 3285.0621995457
312.51; 10.882642; 3296.1402598086
313.53; 10.580248; 3306.9104954444
314.55; 10.346724; 3317.4430134917
315.57; 10.17497; 3327.8006938462
316.58; 10.048689; 3338.0298259283
317.60; 9.9428076; 3348.1511750459
318.62; 9.8278568; 3358.1555091408
319.64; 9.6771729; 3368.0064535151
320.66; 9.4744797; 3377.651064989
321.67; 9.2190492; 3387.0356592563
322.69; 8.9263418; 3396.1222900198
323.71; 8.6235801; 3404.9007224826
324.73; 8.3415386; 3413.3920488059
325.75; 8.1052563; 3421.6428499321
326.76; 7.9268624; 3429.7120538287
327.78; 7.8030299; 3437.6552015441
328.80; 7.7179617; 3445.511753534
329.82; 7.6508308; 3453.2999691144
330.84; 7.5849524; 3461.0211233068
331.85; 7.5152891; 3468.6713633605
332.87; 7.4514416; 3476.2566093854
333.89; 7.4148946; 3483.8046520859
334.91; 7.4313996; 3491.3694961831
335.93; 7.5212048; 3499.0257581605
336.94; 7.6907126; 3506.8545717051
337.96; 7.9287107; 3514.925657102
338.98; 8.2087275; 3523.2817874298
340.00; 8.4968721; 3531.9312365358
341.02; 8.7625533; 3540.8511377186
342.03; 8.9884284; 3550.0009699505
343.05; 9.1762051; 3559.3419507828
344.07; 9.3463798; 3568.8561621105
345.09; 9.5320832; 3578.5594115065
346.11; 9.7691621; 3588.5039969724
347.12; 10.08575; 3598.7708552862
348.14; 10.494535; 3609.4538386832
349.16; 10.989813; 3620.6409941754
350.18; 11.549732; 3632.3981229737
351.20; 12.142482; 3644.7586452541
352.21; 12.734207; 3657.721517979
353.23; 13.296257; 3671.2565333984
354.25; 13.810018; 3685.3145355524
355.27; 14.268577; 3699.8393307824
356.28; 14.675441; 3714.7782965763
357.30; 15.041174; 3730.0895627819
358.32; 15.379005; 3745.7447261821
359.34; 15.700413; 3761.7270694406
360.36; 16.011516; 3778.0261021772
361.37; 16.310979; 3794.6299746723
362.39; 16.59008; 3811.5179604239
363.41; 16.835366; 3828.6556362718
364.43; 17.033812; 3845.9953220635
365.45; 17.179658; 3863.4834726292
366.46; 17.281161; 3881.074948498
367.48; 17.364955; 3898.7517236067
368.50; 17.475784; 3916.5413175874
369.52; 17.670346; 3934.5289674457
370.54; 18.005726; 3952.8580194511
371.55; 18.524776; 3971.7154421119
372.57; 19.242258; 3991.3032300053
373.59; 20.135848; 4011.8006539437
374.61; 21.145079; 4033.3254322919
375.63; 22.179137; 4055.9028362529
376.64; 23.131888; 4079.4501000836
377.66; 23.900505; 4103.779782318
378.68; 24.403144; 4128.6211302381
379.70; 24.591779; 4153.6544996915
380.72; 24.457937; 4178.5516244488
381.73; 24.031282; 4203.0144320999
382.75; 23.372631; 4226.8067620363
383.77; 22.56385; 4249.7757872212
384.79; 21.696736; 4271.8621282801
385.81; 20.862182; 4293.0989292285
386.82; 20.139963; 4313.6005427605
387.84; 19.589211; 4333.5415139861
388.86; 19.239999; 4353.1270022964
389.88; 19.087348; 4372.5570986921
390.90; 19.08963; 4391.9895187594
391.91; 19.173279; 4411.5070895845
392.93; 19.244554; 4431.0972149082
393.95; 19.207125; 4450.6492389812
394.97; 18.982088; 4469.9721853387
395.99; 18.525627; 4488.8304738347
397.00; 17.839558; 4506.9903735752
398.02; 16.971634; 4524.2667647148
399.04; 16.005264; 4540.5594325078
400.06; 15.04131; 4555.8708375142
401.07; 14.176867; 4570.3022767264
402.09; 13.486542; 4584.0309940431
403.11; 13.010738; 4597.2753636299
404.13; 12.753091; 4610.2574596865
405.15; 12.686454; 4623.1717219399
406.16; 12.764617; 4636.1655509628
407.18; 12.93586; 4649.3336985536
408.20; 13.15468; 4662.7245948373
409.22; 13.389271; 4676.3542950564
410.24; 13.624012; 4690.2229513721
411.25; 13.857632; 4704.3294224463
412.27; 14.098647; 4718.6812364985
413.29; 14.359854; 4733.2989482209
414.31; 14.653393; 4748.2154700781
415.33; 14.987381; 4763.4719768826
416.34; 15.364586; 4779.1124619662
417.36; 15.783163; 4795.1790410702
418.38; 16.239079; 4811.7097229516
419.40; 16.729496; 4828.7396281927
420.42; 17.256108; 4846.3056014392
421.43; 17.827273; 4864.4529958661
422.45; 18.45797; 4883.2424125077
423.47; 19.167117; 4902.753710884
424.49; 19.972584; 4923.0849400167
425.51; 20.885026; 4944.3449952485
426.52; 21.902209; 4966.6404989849
427.54; 23.005498; 4990.0591033574
428.56; 24.159607; 5014.6525412379
429.58; 25.315782; 5040.422914832
430.60; 26.417575; 5067.3148659273
431.61; 27.407726; 5095.2147480167
432.63; 28.234527; 5123.9562784542
433.65; 28.856493; 5153.3309429748
434.67; 29.24489; 5183.1009785706
435.69; 29.384424; 5213.0130542683
436.70; 29.272786; 5242.8114874948
437.72; 28.919745; 5272.2505403524
438.74; 28.346144; 5301.1056915589
439.76; 27.582684; 5329.1836740555
440.78; 26.668116; 5356.3306656874
441.79; 25.646442; 5382.4376370667
442.81; 24.563085; 5407.441797496
443.83; 23.460402; 5431.3234746142
444.85; 22.373307; 5454.0985357829
445.87; 21.325882; 5475.8073631348
446.88; 20.329719; 5496.5021399759
447.90; 19.384361; 5516.2345831148
448.92; 18.479774; 5535.046195578
449.94; 17.600433; 5552.9626766521
450.95; 16.73033; 5569.9934310672
451.97; 15.858086; 5586.1362783865
452.99; 14.981263; 5601.3865572508
454.01; 14.109013; 5615.7489240343
455.03; 13.262314; 5629.2493875662
456.04; 12.471365; 5641.9446993153
457.06; 11.770304; 5653.9263608669
458.08; 11.190073; 5665.3173722325
459.10; 10.75096; 5676.2613851201
460.12; 10.456689; 5686.9058435728
461.13; 10.29182; 5697.3824717564
462.15; 10.223473; 5707.7895264973
463.17; 10.207331; 5718.1801488446
464.19; 10.196596; 5728.5598440737
465.21; 10.15178; 5738.8939179172
466.22; 10.048869; 5749.1232333353
467.24; 9.8839328; 5759.1846504314
468.26; 9.6731769; 5769.0315270791
469.28; 9.4486944; 5778.64989027
470.30; 9.2511347; 5788.0671462
471.31; 9.121079; 5797.3520110323
472.33; 9.090918; 5806.6061732618
473.35; 9.1786371; 5815.949629804
474.37; 9.3843486; 5825.5024917087
475.39; 9.689873; 5835.3663643139
476.40; 10.061269; 5845.6083021721
477.42; 10.453903; 5856.2499246683
478.44; 10.819361; 5867.2635673901
479.46; 11.113173; 5878.5762980677
480.48; 11.302015; 5890.0812619582
481.49; 11.368908; 5901.6543194912
482.51; 11.315158; 5913.172661737
483.53; 11.15845; 5924.5314828316
484.55; 10.927485; 5935.6551907636
485.57; 10.654572; 5946.5010849939
486.58; 10.368298; 5957.055564582
487.60; 10.088362; 5967.3250821673
488.62; 9.8239859; 5977.3254758806
489.64; 9.5760328; 5987.0734640246
490.66; 9.3416945; 5996.5829059233
491.67; 9.119696; 6005.8663629006
492.69; 8.91391; 6014.9403385881
493.71; 8.7340041; 6023.83117792
494.73; 8.5930107; 6032.578492053
495.74; 8.5029771; 6041.234155863
496.76; 8.4706094; 6049.8568707202
497.78; 8.4947589; 6058.5041686741
498.80; 8.5667724; 6067.2247733088
499.82; 8.6734988; 6076.054020859
500.83; 8.8016431; 6085.0137137706
501.85; 8.9416493; 6094.1159269397
502.87; 9.0895679; 6103.3687148736
503.89; 9.2462841; 6112.7810330792
504.91; 9.4146391; 6122.3647293969
505.92; 9.595875; 6132.1329160316
506.94; 9.7870969; 6142.0957583417
507.96; 9.9809872; 6152.2559726155
508.98; 10.168027; 6162.6065852827
510.00; 10.340399; 6173.1326649668
511.01; 10.496; 6183.8171404972
512.03; 10.640884; 6194.649101667
513.05; 10.788979; 6205.6318168426
514.07; 10.958932; 6216.7875368982
515.09; 11.168953; 6228.1570492712
516.10; 11.431256; 6239.7935750815
517.12; 11.747867; 6251.7523964059
518.14; 12.109121; 6264.0789594327
519.16; 12.49536; 6276.7986966197
520.18; 12.881318; 6289.9113219969
521.19; 13.241962; 6303.3910678621
522.21; 13.558136; 6317.1926655816
523.23; 13.820489; 6331.2613274628
524.25; 14.030715; 6345.5439903453
525.27; 14.199905; 6359.9988807276
526.28; 14.344603; 6374.6010678491
527.30; 14.481765; 6389.3428797887
528.32; 14.624035; 6404.2295167471
529.34; 14.776651; 6419.2715100144
530.36; 14.936784; 6434.4765118682
531.37; 15.095494; 6449.84307336
532.39; 15.241802; 6465.3585702209
533.41; 15.367908; 6481.0024375168
534.43; 15.474335; 6496.7546430955
535.45; 15.573858; 6512.6081583744
536.46; 15.693337; 6528.5832986865
537.48; 15.872992; 6544.7413195996
538.50; 16.163021; 6561.1945779318
539.52; 16.617859; 6578.1108410758
540.54; 17.288605; 6595.7098953978
541.55; 18.214466; 6614.2514362554
542.57; 19.414261; 6634.014316577
543.59; 20.879318; 6655.2685616093
544.61; 22.569176; 6678.2430088723
545.62; 24.411402; 6703.0927627982
546.64; 26.306378; 6729.8715203444
547.66; 28.137104; 6758.5138780876
548.68; 29.783064; 6788.8317520423
549.70; 31.136195; 6820.5270546063
550.71; 32.116335; 6853.2200972541
551.73; 32.683388; 6886.4903763304
552.75; 32.843941; 6919.9240913107
553.77; 32.651074; 6953.1614761337
554.79; 32.197432; 6985.9370721374
555.80; 31.60283; 7018.1073894686
556.82; 30.998639; 7049.6626660063
557.84; 30.511598; 7080.7221557017
558.86; 30.249721; 7111.5150664062
559.88; 30.292492; 7142.3515165914
560.89; 30.686853; 7173.5894085424
561.91; 31.449587; 7205.6037312256
562.93; 32.575676; 7238.7643632803
563.95; 34.051028; 7273.426840441
564.97; 35.866887; 7309.937783463
565.98; 38.032255; 7348.6529783539
567.00; 40.580346; 7389.9620198241
568.02; 43.565561; 7434.309880607
569.04; 47.049141; 7482.203875397
570.06; 51.074278; 7534.1952868833
571.07; 55.634671; 7590.8289812197
572.09; 60.643464; 7652.5614108682
573.11; 65.91128; 7719.6562496252
574.13; 71.141709; 7792.0754394571
575.15; 75.949902; 7869.3891619788
576.16; 79.904976; 7950.7289798076
577.18; 82.590909; 8034.8029614226
578.20; 83.67494; 8119.9804394237
579.22; 82.969031; 8204.4393326068
580.24; 80.469904; 8286.3542222055
581.25; 76.367085; 8364.092619824
582.27; 71.01557; 8436.3834056521
583.29; 64.878329; 8502.4267444834
584.31; 58.451572; 8561.9279229248
