#Wavenumber (cm^-1); Spectrum (K*cm*km*mol^-1); Integral (K*km*mol^-1)
0.00; 0.93205212; 0.94878883902516
1.02; 1.0020642; 1.9688469877043
2.04; 1.2082249; 3.1987678338588
3.05; 1.5398962; 4.7663157448668
4.07; 1.9822697; 6.7841807721731
5.09; 2.5195897; 9.3490143219027
6.11; 3.1378314; 12.543191321108
7.13; 3.8259246; 16.437817418625
8.14; 4.5752269; 21.095200935053
9.16; 5.3776689; 26.569435811287
10.18; 6.22351; 32.904700465599
11.20; 7.099784; 40.131974188581
12.22; 7.990224; 48.265677404193
13.23; 8.8768788; 57.301956953271
14.25; 9.7429911; 67.219901496215
15.27; 10.576249; 77.986067010644
16.29; 11.371396; 89.561657777351
17.31; 12.131407; 101.91090668866
18.32; 12.866929; 115.00888494168
19.34; 13.594217; 128.84721097588
20.36; 14.332217; 143.4367890322
21.38; 15.099586; 158.80751637262
22.40; 15.912296; 175.00554736011
23.41; 16.782066; 192.08896603369
24.43; 17.715463; 210.12254278108
25.45; 18.713213; 229.17178643099
26.47; 19.76928; 249.29606016336
27.48; 20.86964; 270.54045320786
28.50; 21.991259; 292.92660562687
29.52; 23.102261; 316.44371065177
30.54; 24.164453; 341.04208147525
31.56; 25.138853; 366.63234887663
32.57; 25.993826; 393.09294220918
33.59; 26.714064; 420.28670623889
34.61; 27.30753; 448.08459295074
35.63; 27.807303; 476.39122719056
36.65; 28.266247; 505.16504711175
37.66; 28.744634; 534.42584461954
38.68; 29.293553; 564.24541703965
39.70; 29.939167; 594.72219742647
40.72; 30.673617; 625.94661616151
41.74; 31.456925; 657.96840838916
42.75; 32.230965; 690.77814034361
43.77; 32.942239; 724.3119181654
44.79; 33.566496; 758.48116216958
45.81; 34.12664; 793.2206092101
46.83; 34.696701; 828.54035340414
47.84; 35.388728; 864.56455163179
48.86; 36.325065; 901.54190045048
49.88; 37.603522; 939.82066301408
50.90; 39.265766; 979.79151841679
51.92; 41.278613; 1021.8113656921
52.93; 43.534051; 1066.1271511627
53.95; 45.868084; 1112.8188812788
54.97; 48.092882; 1161.775359675
55.99; 50.03311; 1212.7069070585
57.01; 51.55684; 1265.1895449972
58.02; 52.593943; 1318.7279096159
59.04; 53.139276; 1372.8213998011
60.06; 53.242483; 1427.0199499056
61.08; 52.989537; 1480.9610124402
62.10; 52.482264; 1534.385692752
63.11; 51.821198; 1587.1374359464
64.13; 51.095003; 1639.1499440993
65.15; 50.377257; 1690.4318175801
66.17; 49.729447; 1741.0542491565
67.19; 49.207854; 1791.1457208676
68.20; 48.871409; 1840.8947064617
69.22; 48.787489; 1890.5582647349
70.24; 49.032707; 1940.4714450658
71.26; 49.686487; 1991.0501451198
72.27; 50.816662; 2042.7793141117
73.29; 52.45882; 2096.1801290348
74.31; 54.59402; 2151.754485496
75.33; 57.13191; 2209.9123048532
76.35; 59.906889; 2270.8949331508
77.36; 62.692806; 2334.7135046257
78.38; 65.236814; 2401.121766134
79.40; 67.306568; 2469.6369478569
80.42; 68.739202; 2539.6104894191
81.44; 69.477815; 2610.3359067951
82.45; 69.583171; 2681.1685726378
83.47; 69.214978; 2751.626433561
84.49; 68.586526; 2821.4445572827
85.51; 67.905562; 2890.5694892208
86.53; 67.319519; 2959.0978541681
87.54; 66.882488; 3027.1813404957
88.56; 66.554471; 3094.9309204075
89.58; 66.232655; 3162.3529047647
90.60; 65.803541; 3229.3380697617
91.62; 65.197703; 3295.7065176723
92.63; 64.428248; 3361.2916940285
93.65; 63.600115; 3426.0338665719
94.67; 62.88774; 3490.0508723423
95.69; 62.489619; 3553.6626079894
96.71; 62.575777; 3617.3620484591
97.72; 63.245616; 3681.7433568367
98.74; 64.508746; 3747.410476363
99.76; 66.292356; 3814.89323444
100.78; 68.469143; 3884.5918674575
101.80; 70.893224; 3956.7581107859
102.81; 73.430301; 4031.5069883942
103.83; 75.972434; 4108.8436474326
104.85; 78.435332; 4188.6874308398
105.87; 80.743698; 4270.8810314822
106.89; 82.814949; 4355.1830760937
107.90; 84.551767; 4441.2531261094
108.92; 85.849604; 4528.6443184171
109.94; 86.618409; 4616.8181212395
110.96; 86.811264; 4705.188242185
111.98; 86.448937; 4793.1895300848
112.99; 85.629935; 4880.3571085961
114.01; 84.520218; 4966.3950431673
115.03; 83.323605; 5051.2148777517
116.05; 82.240485; 5134.9321425753
117.07; 81.426515; 5217.8208206737
118.08; 80.963127; 5300.2377900474
119.10; 80.84793; 5382.5374941775
120.12; 81.006842; 5464.9989635141
121.14; 81.323131; 5547.7824016791
122.15; 81.673658; 5630.9226612781
123.17; 81.960991; 5714.3554130219
124.19; 82.132178; 5797.9624261211
125.21; 82.179971; 5881.6180906518
126.23; 82.12848; 5965.2213389575
127.24; 82.010562; 6048.7045517006
128.26; 81.846864; 6132.0211273326
129.28; 81.635441; 6215.1224835895
130.30; 81.356582; 6297.9399738748
131.32; 80.991316; 6380.3856382411
132.33; 80.546175; 6462.3781689008
133.35; 80.073434; 6543.8894690647
134.37; 79.676478; 6624.9966856762
135.39; 79.494524; 6705.9186805591
136.41; 79.668027; 6787.0172945989
137.42; 80.293624; 6868.7527387969
138.44; 81.382468; 6951.5965794079
139.46; 82.836545; 7035.920607881
140.48; 84.453246; 7121.8903678304
141.50; 85.960442; 7209.3943885238
142.51; 87.074965; 7298.0329459032
143.53; 87.569801; 7387.1752245851
144.55; 87.331988; 7476.0754201314
145.57; 86.395252; 7564.0220582184
146.59; 84.938137; 7650.4854169352
147.60; 83.247771; 7735.2280560206
148.62; 81.658446; 7818.352830395
149.64; 80.480504; 7900.2785109609
150.66; 79.936871; 7981.6507958836
151.68; 80.121924; 8063.2114567007
152.69; 80.991317; 8145.6571221768
153.71; 82.383639; 8229.5201120807
154.73; 84.067421; 8315.0971192075
155.75; 85.801479; 8402.4393220848
156.77; 87.393955; 8491.402596836
157.78; 88.74596; 8581.7421544702
158.80; 89.869345; 8673.2252694437
159.82; 90.874185; 8765.7312682855
160.84; 91.928964; 8859.3109868865
161.86; 93.203644; 8954.1882748138
162.87; 94.810958; 9050.7017383293
163.89; 96.762647; 9149.2019378671
164.91; 98.954034; 9249.9328746338
165.93; 101.18258; 9352.9323718623
166.94; 103.19595; 9457.981398288
167.96; 104.75571; 9564.6181927557
168.98; 105.69716; 9672.2133381597
170.00; 105.96698; 9780.0831491839
171.02; 105.62761; 9887.6075019019
172.03; 104.8289; 9994.3188010468
173.05; 103.75918; 10099.941164434
174.07; 102.59508; 10204.37852526
175.09; 101.46897; 10307.669562069
176.11; 100.46478; 10409.938374245
177.12; 99.640328; 10511.367928624
178.14; 99.062292; 10612.209066733
179.16; 98.833375; 10712.817177298
180.18; 99.093947; 10813.690539554
181.20; 99.991235; 10915.477302302
182.21; 101.62413; 11018.926282021
183.23; 103.98454; 11124.778053994
184.25; 106.92108; 11233.619095871
185.27; 110.14516; 11345.74211629
186.29; 113.28454; 11461.06088843
187.30; 115.97095; 11579.114307163
188.32; 117.93391; 11699.165934594
189.34; 119.06824; 11820.372264416
190.36; 119.4508; 11941.968022472
191.38; 119.29981; 12063.410076797
192.39; 118.89118; 12184.436168289
193.41; 118.46218; 12305.025560217
194.43; 118.13729; 12425.284220034
195.45; 117.90234; 12545.303714315
196.47; 117.63442; 12665.050478675
197.48; 117.17333; 12784.327869499
198.50; 116.40516; 12902.823297884
199.52; 115.32465; 13020.218811744
200.54; 114.05221; 13136.319041243
201.56; 112.80016; 13251.14473966
202.57; 111.80252; 13364.954880046
203.59; 111.23661; 13478.188944269
204.61; 111.16676; 13591.351903902
205.63; 111.53061; 13704.88524898
206.65; 112.17105; 13819.070534519
207.66; 112.89908; 13933.996923341
208.68; 113.56181; 14049.597942683
209.70; 114.08946; 14165.736092105
210.72; 114.50525; 14282.297497402
211.74; 114.89759; 14399.258280989
212.75; 115.36882; 14516.698766328
213.77; 115.98274; 14634.764190596
214.79; 116.73136; 14753.591678793
215.81; 117.53244; 14873.234628893
216.82; 118.25568; 14993.613804268
217.84; 118.76504; 15114.511484992
218.86; 118.95985; 15235.607477182
219.88; 118.80054; 15356.541296904
220.90; 118.31308; 15476.97890685
221.91; 117.57589; 15596.666094187
222.93; 116.69897; 15715.460609084
223.95; 115.80561; 15833.345719155
224.97; 115.02237; 15950.43352396
225.99; 114.47574; 16066.964889113
227.00; 114.28874; 16183.30589097
228.02; 114.56972; 16299.932925827
229.04; 115.39043; 16417.39540891
230.06; 116.75736; 16536.249358188
231.08; 118.58749; 16656.966306928
232.09; 120.7016; 16779.835328842
233.11; 122.8439; 16904.88511362
234.13; 124.72794; 17031.852776293
235.15; 126.09783; 17160.21492662
236.17; 126.7861; 17289.277701816
237.18; 126.74915; 17418.302864625
238.20; 126.06782; 17546.634462369
239.22; 124.9128; 17673.790306105
240.24; 123.4875; 17799.495253402
241.26; 121.96891; 17923.654341612
242.27; 120.46759; 18046.28514637
243.29; 119.01968; 18167.442048833
244.31; 117.6113; 18287.165272832
245.33; 116.22249; 18405.47475625
246.35; 114.87103; 18522.408508018
247.36; 113.63637; 18638.085425843
248.38; 112.65321; 18752.761534844
249.40; 112.07647; 18866.850540127
250.42; 112.03118; 18980.893442101
251.44; 112.56714; 19095.481937743
252.45; 113.63584; 19211.158314256
253.47; 115.09835; 19328.323468262
254.49; 116.76122; 19447.181353144
255.51; 118.42646; 19567.734375162
256.53; 119.93781; 19689.825888984
257.54; 121.20794; 19813.210338708
258.56; 122.21953; 19937.62454352
259.58; 123.00382; 20062.837122819
260.60; 123.608; 20188.664729511
261.61; 124.06564; 20314.958192761
262.63; 124.38118; 20441.572867588
263.65; 124.53234; 20568.341415909
264.67; 124.48654; 20695.063336747
265.69; 124.22263; 20821.516612717
266.70; 123.74867; 20947.487418463
267.72; 123.10998; 21072.808064854
268.74; 122.3873; 21197.393051286
269.76; 121.68896; 21321.26716067
270.78; 121.14225; 21444.584742965
271.79; 120.8867; 21567.642192027
272.81; 121.06806; 21690.884250079
273.83; 121.82809; 21814.899984785
274.85; 123.28545; 21940.399257906
275.87; 125.50627; 22068.159223467
276.88; 128.46941; 22198.935535563
277.90; 132.03774; 22333.344252331
278.92; 135.94888; 22471.734346132
279.94; 139.83626; 22614.081625674
280.96; 143.28276; 22759.937292289
281.97; 145.89831; 22908.45547289
282.99; 147.40287; 23058.5052365
284.01; 147.69188; 23208.84920008
285.03; 146.8641; 23358.350520527
286.05; 145.20209; 23506.159978403
287.06; 143.10909; 23651.838860391
288.08; 141.0194; 23795.390520035
289.10; 139.30635; 23937.198376798
290.12; 138.21243; 24077.892666862
291.14; 137.81736; 24218.184795511
292.15; 138.04833; 24358.712042282
293.17; 138.72351; 24499.926584835
294.19; 139.612; 24642.045576813
295.21; 140.49164; 24785.060007211
296.23; 141.19038; 24928.785720814
297.24; 141.60562; 25072.934128733
298.26; 141.70418; 25217.182866625
299.28; 141.51078; 25361.234737573
300.30; 141.0936; 25504.861932118
301.32; 140.55189; 25647.937688522
302.33; 140.0059; 25790.45765332
303.35; 139.58545; 25932.549615913
304.37; 139.41342; 26074.466463315
305.39; 139.58378; 26216.556723214
306.41; 140.13852; 26359.211693961
307.42; 141.05217; 26502.796711944
308.44; 142.23202; 26647.582766493
309.46; 143.53842; 26793.698682303
310.48; 144.82087; 26941.120079649
311.49; 145.95821; 27089.699241514
312.51; 146.88684; 27239.223705888
313.53; 147.60322; 27389.477414015
314.55; 148.13579; 27540.273256532
315.57; 148.49395; 27691.433686871
316.58; 148.61327; 27842.715581937
317.60; 148.32147; 27993.700441184
318.62; 147.34556; 28143.691866532
319.64; 145.36773; 28291.669938324
320.66; 142.1196; 28436.341559369
321.67; 137.48815; 28576.298566249
322.69; 131.59782; 28710.259468823
323.71; 124.83705; 28837.33819547
324.73; 117.81237; 28957.266108074
325.75; 111.23554; 29070.499086085
326.76; 105.771; 29178.169403695
327.78; 101.88548; 29281.884422181
328.80; 99.742151; 29383.417627492
329.82; 99.170043; 29484.368451639
330.84; 99.716856; 29585.875907637
331.85; 100.76955; 29688.454959377
332.87; 101.70799; 29791.989305786
333.89; 102.04945; 29895.871246015
334.91; 101.54694; 29999.241648925
335.93; 100.22004; 30101.261326138
336.94; 98.317309; 30201.344104151
337.96; 96.227647; 30299.299696008
338.98; 94.369536; 30395.3638111
340.00; 93.088716; 30490.124106973
341.02; 92.588068; 30584.37476448
342.03; 92.901287; 30678.944266102
343.05; 93.908862; 30774.539435646
344.07; 95.384667; 30871.636910904
345.09; 97.056438; 30970.436177034
346.11; 98.663711; 31070.871577225
347.12; 100.00123; 31172.668514464
348.14; 100.94228; 31275.423400436
349.16; 101.44268; 31378.687668187
350.18; 101.53076; 31482.041597639
351.20; 101.29077; 31585.151226295
352.21; 100.84648; 31687.808586745
353.23; 100.3493; 31789.959842716
354.25; 99.971486; 31891.726501114
355.27; 99.901493; 31993.421910085
356.28; 100.33645; 32095.56008689
357.30; 101.46671; 32198.848822595
358.32; 103.45003; 32304.1564937
359.34; 106.37728; 32412.443970211
360.36; 110.23646; 32524.659926528
361.37; 114.88547; 32641.608378234
362.39; 120.04439; 32763.808388049
363.41; 125.31517; 32891.373827719
364.43; 130.2302; 33023.942555362
365.45; 134.32322; 33160.677798703
366.46; 137.20916; 33300.350798534
367.48; 138.65547; 33441.496079947
368.50; 138.6283; 33582.613707452
369.52; 137.30193; 33722.38114466
370.54; 135.02821; 33859.83403402
371.55; 132.27192; 33994.481141544
372.57; 129.52522; 34126.33222684
373.59; 127.21859; 34255.835260931
374.61; 125.64565; 34383.737111399
375.63; 124.91569; 34510.89589436
376.64; 124.94179; 34638.081243486
377.66; 125.46564; 34765.799854313
378.68; 126.11376; 34894.178224419
379.70; 126.47452; 35022.923824706
380.72; 126.18216; 35151.371817323
381.73; 124.99269; 35278.608984216
382.75; 122.83729; 35403.652048545
383.77; 119.84243; 35525.646467368
384.79; 116.31126; 35644.046315675
385.81; 112.66826; 35758.737740587
386.82; 109.37635; 35870.078144584
387.84; 106.84292; 35978.839627743
388.86; 105.3343; 36086.065397107
389.88; 104.91819; 36192.867591844
390.90; 105.44845; 36300.209563975
391.91; 106.5974; 36408.721115421
392.93; 107.93024; 36518.589443191
393.95; 109.00535; 36629.552185753
394.97; 109.47733; 36740.995386046
395.99; 109.17803; 36852.133913116
397.00; 108.15522; 36962.231255542
398.02; 106.65861; 37070.805116885
399.04; 105.07606; 37177.768009088
400.06; 103.83519; 37283.467751536
401.07; 103.29502; 37388.61762273
402.09; 103.65451; 37494.133442591
403.11; 104.90063; 37600.917761738
404.13; 106.80779; 37709.643482961
405.15; 108.98702; 37820.587564482
406.16; 110.97064; 37933.55088417
407.18; 112.30992; 38047.877531936
408.20; 112.66204; 38162.562625409
409.22; 111.84801; 38276.41907144
410.24; 109.87308; 38388.265127612
411.25; 106.91216; 38497.097089558
412.27; 103.27065; 38602.222152003
413.29; 99.334394; 38703.340278862
414.31; 95.519875; 38800.575390191
415.33; 92.230383; 38894.46194
416.34; 89.81809; 38985.892879405
417.36; 88.549041; 39076.031982218
418.38; 88.569497; 39166.191908184
419.40; 89.876863; 39257.682676622
420.42; 92.303878; 39351.644041237
421.43; 95.527223; 39448.886632246
422.45; 99.108788; 39549.775102078
423.47; 102.56918; 39654.186100568
424.49; 105.48134; 39761.561550388
425.51; 107.56183; 39871.054855811
426.52; 108.73329; 39981.740656856
427.54; 109.13638; 40092.836782347
428.56; 109.08338; 40203.878951327
429.58; 108.96364; 40314.799239521
430.60; 109.12783; 40425.886658131
431.61; 109.78618; 40537.64425506
432.63; 110.95331; 40650.589935759
433.65; 112.45678; 40765.066085676
434.67; 114.00594; 40881.119210309
435.69; 115.29637; 40998.48593785
436.70; 116.11329; 41116.684251955
437.72; 116.39756; 41235.171945716
438.74; 116.25181; 41353.511269687
439.76; 115.88577; 41471.477981948
440.78; 115.52244; 41589.07483689
441.79; 115.30076; 41706.446031063
442.81; 115.21203; 41823.726906631
443.83; 115.09479; 41940.888441187
444.85; 114.69154; 42057.639476995
445.87; 113.74797; 42173.430001794
446.88; 112.11989; 42287.563215242
447.90; 109.84965; 42399.385415545
448.92; 107.18456; 42508.494673912
449.94; 104.52983; 42614.901533986
450.95; 102.35043; 42719.089860089
451.97; 101.0533; 42821.957757041
452.99; 100.88649; 42924.655852983
454.01; 101.88508; 43028.370462885
455.03; 103.87692; 43134.112681439
456.04; 106.54218; 43242.568021343
457.06; 109.50414; 43354.038510956
458.08; 112.42177; 43468.479017001
459.10; 115.05735; 43585.602432998
460.12; 117.30382; 43705.012655082
461.13; 119.17103; 43826.323621845
462.15; 120.74357; 43949.23536981
463.17; 122.12968; 44073.558113288
464.19; 123.42082; 44199.195180579
465.21; 124.67472; 44326.108664798
466.22; 125.92449; 44454.294360336
467.24; 127.2066; 44583.785187481
468.26; 128.59392; 44714.688248384
469.28; 130.21844; 44847.244999474
470.30; 132.27168; 44981.891864469
471.31; 134.978; 45119.293647441
472.33; 138.54437; 45260.325840092
473.35; 143.09807; 45405.993497703
474.37; 148.62853; 45557.290925101
475.39; 154.95045; 45715.023796607
476.40; 161.70151; 45879.628953802
477.42; 168.38048; 46051.03301164
478.44; 174.42163; 46228.586699349
479.46; 179.29141; 46411.097615764
480.48; 182.58627; 46596.962561306
481.49; 184.10836; 46784.376926332
482.51; 183.89986; 46971.579046876
483.53; 182.22645; 47157.077711788
484.55; 179.51328; 47339.814487955
485.57; 176.24957; 47519.228946011
486.58; 172.88661; 47695.220059574
487.60; 169.75566; 47868.023993193
488.62; 167.02609; 48038.049343355
489.64; 164.71238; 48205.719437805
490.66; 162.72355; 48371.364991275
491.67; 160.93642; 48535.191323152
492.69; 159.26732; 48697.318578137
493.71; 157.71852; 48857.869226046
494.73; 156.38493; 49017.062337757
495.74; 155.42031; 49175.273503151
496.76; 154.97652; 49333.032910223
497.78; 155.13872; 49490.957430421
498.80; 155.88106; 49649.637624543
499.82; 157.06077; 49809.518711865
500.83; 158.45512; 49970.819190129
501.85; 159.8306; 50133.519848333
502.87; 161.02132; 50297.432608297
503.89; 161.98924; 50462.330664076
504.91; 162.84365; 50628.098471685
505.92; 163.8107; 50794.850692804
506.94; 165.16082; 50962.977277146
507.96; 167.1173; 51133.095479181
508.98; 169.77692; 51305.921053333
510.00; 173.0704; 51482.099247512
511.01; 176.7776; 51662.051211152
512.03; 180.59309; 51845.887180138
513.05; 184.22006; 52033.415248184
514.07; 187.45995; 52224.241386476
515.09; 190.26647; 52417.924445221
516.10; 192.74523; 52614.130768257
517.12; 195.09965; 52812.733796415
518.14; 197.5433; 53013.824355436
519.16; 200.21023; 53217.629732101
520.18; 203.09562; 53424.37231143
521.19; 206.04758; 53634.119854565
522.21; 208.81291; 53846.682389445
523.23; 211.12165; 54061.595113799
524.25; 212.78315; 54278.19918258
525.27; 213.76511; 54495.802841066
526.28; 214.23374; 54713.883545006
527.30; 214.54676; 54932.282892115
528.32; 215.20312; 55151.350385544
529.34; 216.76228; 55372.005034655
530.36; 219.74891; 55595.699941955
531.37; 224.5579; 55824.290196579
532.39; 231.37249; 56059.817408616
533.41; 240.10718; 56304.236158491
534.43; 250.38728; 56559.119607559
535.45; 261.57563; 56825.392316042
536.46; 272.85176; 57103.143631653
537.48; 283.33752; 57391.569000059
538.50; 292.24839; 57689.065254163
539.52; 299.03587; 57993.470866577
540.54; 303.48139; 58302.401827233
541.55; 305.71053; 58613.601953152
542.57; 306.11803; 58925.216899771
543.59; 305.22379; 59235.921549177
544.61; 303.50591; 59544.877470021
545.62; 301.26866; 59851.555966698
546.64; 298.59342; 60155.511180783
547.66; 295.39109; 60456.206568479
548.68; 291.53526; 60752.976879658
549.70; 287.02118; 61045.152053985
550.71; 282.08205; 61332.299412015
551.73; 277.20658; 61614.483748335
552.75; 273.03883; 61892.425496804
553.77; 270.18816; 62167.465387759
554.79; 269.0155; 62441.31155889
555.80; 269.47678; 62715.627296873
556.82; 271.08779; 62991.582967506
557.84; 273.03253; 63269.518297992
558.86; 274.3857; 63548.831101712
559.88; 274.37796; 63828.136025278
560.89; 272.61699; 64105.648359634
561.91; 269.19333; 64379.675555567
562.93; 264.64055; 64649.068216024
563.95; 259.76928; 64913.502135642
564.97; 255.43463; 65173.523564427
565.98; 252.31299; 65430.367296422
567.00; 250.75334; 65685.623380687
568.02; 250.73621; 65940.862026345
569.04; 251.93457; 66197.320548782
570.06; 253.8403; 66455.719021512
571.07; 255.90646; 66716.220753743
572.09; 257.66201; 66978.509560528
573.11; 258.77523; 67241.931577778
574.13; 259.06476; 67505.648326066
575.15; 258.4739; 67768.763602679
576.16; 257.02951; 68030.408554048
577.18; 254.80295; 68289.78696379
578.20; 251.88159; 68546.19154944
579.22; 248.3518; 68799.002963012
580.24; 244.29116; 69047.680824591
581.25; 239.76852; 69291.75482983
582.27; 234.85295; 69530.824994444
583.29; 229.63264; 69764.581111024
584.31; 224.2409; 69992.848666878
585.33; 218.88056; 70215.65962816
