#Wavenumber (cm^-1); Spectrum (K*cm*km*mol^-1); Integral (K*km*mol^-1)
0.00; 0.81786618; 0.83255247928095
1.02; 0.86766146; 1.7157944048429
2.04; 1.0133154; 2.7473057960893
3.05; 1.2451043; 4.0147682667623
4.07; 1.5510138; 5.5936333639932
5.09; 1.9208698; 7.5489959779033
6.11; 2.3488795; 9.9400539975147
7.13; 2.8333298; 12.824261457838
8.14; 3.3736062; 16.258446997496
9.16; 3.9660955; 20.295761063021
10.18; 4.6012524; 24.979637502444
11.20; 5.263765; 30.337923169282
12.22; 5.936429; 36.380951746547
13.23; 6.6065882; 43.106173475262
14.25; 7.2725708; 50.509336675382
15.27; 7.9471184; 58.599160302442
16.29; 8.6556401; 67.410228381811
17.31; 9.4289747; 77.008517708628
18.32; 10.29255; 87.485889427211
19.34; 11.25551; 98.943513320849
20.36; 12.303868; 111.46831989798
21.38; 13.400728; 125.10968270616
22.40; 14.494431; 139.86438807618
23.41; 15.532746; 155.67605361168
24.43; 16.478994; 172.45095858951
25.45; 17.32497; 190.08703035819
26.47; 18.096223; 208.50820407112
27.48; 18.847479; 227.69412392782
28.50; 19.649137; 247.69609766507
29.52; 20.568797; 268.6342454966
30.54; 21.653654; 290.67673058291
31.56; 22.9196; 314.00789482499
32.57; 24.3508; 338.79595838309
33.59; 25.909907; 365.17112545784
34.61; 27.555153; 393.22108199368
35.63; 29.257573; 423.00402858341
36.65; 31.010985; 454.57187321784
37.66; 32.829504; 487.99089113538
38.68; 34.731912; 523.34647855274
39.70; 36.717756; 560.72356943221
40.72; 38.744473; 600.16377105278
41.74; 40.716343; 641.61125109771
42.75; 42.493428; 684.86772722955
43.77; 43.922345; 729.57877952901
44.79; 44.882508; 775.26723573628
45.81; 45.334305; 821.41560184902
46.83; 45.352419; 867.58240762094
47.84; 45.129915; 913.52271401101
48.86; 44.946729; 959.27654416084
49.88; 45.107477; 1005.1940097311
50.90; 45.864383; 1051.8819727838
51.92; 47.347589; 1100.0797748238
52.93; 49.524653; 1150.493734414
53.95; 52.203165; 1203.6343034232
54.97; 55.077541; 1259.7008635475
55.99; 57.807391; 1318.5462931405
57.01; 60.104911; 1379.7304987121
58.02; 61.806045; 1442.646385838
59.04; 62.905488; 1506.681458465
60.06; 63.547103; 1571.3696667627
61.08; 63.975041; 1636.4934977598
62.10; 64.462134; 1702.1131688404
63.11; 65.237455; 1768.5220825232
64.13; 66.433051; 1836.1480618426
65.15; 68.062005; 1905.4322459327
66.17; 70.02933; 1976.7190817467
67.19; 72.167687; 2050.1826729624
68.20; 74.284367; 2125.8009527785
69.22; 76.205675; 2203.3750417586
70.24; 77.808941; 2282.581186147
71.26; 79.038506; 2363.0389744778
72.27; 79.907656; 2444.3815198188
73.29; 80.491497; 2526.3183907711
74.31; 80.915706; 2608.6870877151
75.33; 81.343672; 2691.4914352725
76.35; 81.961574; 2774.9247808278
77.36; 82.959082; 2859.3735467375
78.38; 84.503812; 2945.3947803914
79.40; 86.710333; 3033.6621576607
80.42; 89.608359; 3124.8796004055
81.44; 93.118034; 3219.6697408708
82.45; 97.041432; 3318.4537309634
83.47; 101.07745; 3421.3462088496
84.49; 104.86233; 3528.0915341521
85.51; 108.03134; 3638.0627741677
86.53; 110.29014; 3750.3333748477
87.54; 111.47993; 3863.8151364831
88.56; 111.61947; 3977.4389362923
89.58; 110.91075; 4090.3412923671
90.60; 109.70333; 4202.0145470763
91.62; 108.42212; 4312.3835858865
92.63; 107.47385; 4421.7873294178
93.65; 107.15407; 4530.8655538548
94.67; 107.5781; 4640.3754219508
95.69; 108.65453; 4750.9810444682
96.71; 110.10966; 4863.0679299717
97.72; 111.55823; 4976.629395325
98.74; 112.60321; 5091.2545995352
99.76; 112.93951; 5206.2221449437
100.78; 112.43485; 5320.6759732024
101.80; 111.16677; 5433.838948482
102.81; 109.40633; 5545.2098694564
103.83; 107.55304; 5654.6942250414
104.85; 106.03806; 5762.6363895998
105.87; 105.22044; 5869.7462607351
106.89; 105.30256; 5976.939721465
107.90; 106.28465; 6085.1329095201
108.92; 107.96843; 6195.0401092953
109.94; 110.00673; 6307.0222121279
110.96; 111.9854; 6421.0185122967
111.98; 113.51632; 6536.5732245843
112.99; 114.31907; 6652.9451093328
114.01; 114.2725; 6769.2695833268
115.03; 113.42566; 6884.7320089112
116.05; 111.96804; 6998.7106386934
117.07; 110.16863; 7110.8575547677
118.08; 108.30083; 7221.1031300321
119.10; 106.57278; 7329.5896251533
120.12; 105.0809; 7436.5574458891
121.14; 103.7975; 7542.2188182816
122.15; 102.5943; 7646.6553924594
123.17; 101.29392; 7749.7682310552
124.19; 99.733941; 7851.2930795653
125.21; 97.825407; 7950.8751229285
126.23; 95.589238; 8048.1808425143
127.24; 93.160975; 8143.0146950277
128.26; 90.763213; 8235.40772932
129.28; 88.654086; 8325.6537631456
130.30; 87.06633; 8414.2835297118
131.32; 86.153177; 8501.9837461363
132.33; 85.954385; 8589.4816012999
133.35; 86.389329; 8677.4222103388
134.37; 87.276446; 8766.2658659153
135.39; 88.371813; 8856.2245582633
136.41; 89.415943; 8947.2461294845
137.42; 90.177662; 9039.0430985561
138.44; 90.486663; 9131.1546164551
139.46; 90.250561; 9223.0257932978
140.48; 89.456652; 9314.0888050437
141.50; 88.161619; 9403.8335290727
142.51; 86.473897; 9491.8602246924
143.53; 84.533197; 9577.9113715352
144.55; 82.490581; 9661.8832232218
145.57; 80.491073; 9743.8196623131
146.59; 78.659688; 9823.8918301134
147.60; 77.09111; 9902.3672534349
148.62; 75.843097; 9979.5722536621
149.64; 74.93373; 10055.851557591
150.66; 74.342753; 10131.529272209
151.68; 74.017217; 10206.875604786
152.69; 73.881382; 10282.083663983
153.71; 73.850288; 10357.260070635
154.73; 73.845556; 10432.431659823
155.75; 73.811057; 10507.56813049
156.77; 73.725254; 10582.617257259
157.78; 73.606806; 10657.54580972
158.80; 73.510792; 10732.376623461
159.82; 73.514783; 10807.211499755
160.84; 73.696808; 10882.231669955
161.86; 74.110119; 10957.672573192
162.87; 74.761648; 11033.77670508
163.89; 75.601074; 11110.73533562
164.91; 76.525052; 11188.634536545
165.93; 77.39685; 11267.42118974
166.94; 78.07657; 11346.899769151
167.96; 78.45328; 11426.761822566
168.98; 78.469125; 11506.640005455
170.00; 78.127848; 11586.170783357
171.02; 77.485332; 11665.047507463
172.03; 76.626173; 11743.049644597
173.05; 75.63539; 11820.043208108
174.07; 74.576085; 11895.958444577
175.09; 73.481298; 11970.759235461
176.11; 72.362321; 12044.420956036
177.12; 71.228542; 12116.928538001
178.14; 70.108594; 12188.296060892
179.16; 69.061459; 12258.597646425
180.18; 68.170065; 12327.991831067
181.20; 67.517465; 12396.72169649
182.21; 67.15398; 12465.081549869
183.23; 67.069075; 12533.354974227
184.25; 67.181715; 12601.743060949
185.27; 67.356938; 12670.309517391
186.29; 67.446396; 12738.967037957
187.30; 67.340379; 12807.516638241
188.32; 67.012677; 12875.73265128
189.34; 66.540268; 12943.467772347
190.36; 66.087707; 13010.742205762
191.38; 65.858466; 13077.783282072
192.39; 66.027968; 13144.996904341
193.41; 66.680701; 13212.874980814
194.43; 67.773549; 13281.865529262
195.45; 69.13907; 13352.246118856
196.47; 70.528851; 13424.041445807
197.48; 71.683213; 13497.011863305
198.50; 72.404509; 13570.716528718
199.52; 72.610348; 13644.630729736
200.54; 72.350417; 13718.280332042
201.56; 71.783295; 13791.352628664
202.57; 71.122994; 13863.752767804
203.59; 70.574082; 13935.594137506
204.61; 70.276271; 14007.132348509
205.63; 70.274188; 14078.668439289
206.65; 70.518178; 14150.452901389
207.66; 70.891554; 14222.617444305
208.68; 71.252358; 14295.149269916
209.70; 71.475552; 14367.908297625
210.72; 71.484411; 14440.676343824
211.74; 71.265612; 14513.221661376
212.75; 70.868353; 14585.362586993
213.77; 70.39159; 14657.01818777
214.79; 69.964325; 14728.238851791
215.81; 69.722785; 14799.213637925
216.82; 69.78666; 14870.253446821
217.84; 70.236061; 14941.750726528
218.86; 71.091651; 15014.118959641
219.88; 72.302018; 15087.719294334
220.90; 73.743083; 15162.786571173
221.91; 75.233017; 15239.370535926
222.93; 76.562453; 15317.307809195
223.95; 77.534785; 15396.234874818
224.97; 78.00702; 15475.642655109
225.99; 77.920082; 15554.961935883
227.00; 77.309677; 15633.659851058
228.02; 76.294353; 15711.324210402
229.04; 75.044316; 15787.71608571
230.06; 73.740359; 15862.78058869
231.08; 72.534768; 15936.617852002
232.09; 71.524527; 16009.426734086
233.11; 70.742375; 16081.439419303
234.13; 70.165267; 16152.864633202
235.15; 69.734858; 16223.85170965
236.17; 69.382307; 16294.479904025
237.18; 69.050293; 16364.770122952
238.20; 68.707785; 16434.711683561
239.22; 68.356172; 16504.295317016
240.24; 68.027652; 16573.544530935
241.26; 67.777635; 16642.539238449
242.27; 67.672792; 16711.427220988
243.29; 67.776121; 16780.420387621
244.31; 68.130754; 16849.774554892
245.33; 68.74531; 16919.754313998
246.35; 69.58467; 16990.588505534
247.36; 70.570119; 17062.425841194
248.38; 71.591076; 17135.302467675
249.40; 72.527198; 17209.132025142
250.42; 73.275582; 17283.723405221
251.44; 73.77495; 17358.823120812
252.45; 74.01846; 17434.170718807
253.47; 74.049934; 17509.550356476
254.49; 73.943899; 17584.822054372
255.51; 73.775873; 17659.9227096
256.53; 73.593476; 17734.837692472
257.54; 73.399171; 17809.554881417
258.56; 73.151593; 17884.020046598
259.58; 72.785586; 17958.112632458
260.60; 72.243947; 18031.653852821
261.61; 71.509122; 18104.447053009
262.63; 70.622674; 18176.337887151
263.65; 69.684436; 18247.273636281
264.67; 68.830458; 18317.340072724
265.69; 68.19643; 18386.761095846
266.70; 67.878567; 18455.858548238
267.72; 67.904996; 18524.982904124
268.74; 68.227277; 18594.435328296
269.76; 68.735075; 18664.404668413
270.78; 69.289487; 18734.938375723
271.79; 69.76468; 18805.955809849
272.81; 70.085067; 18877.29938376
273.83; 70.246858; 18948.807654188
274.85; 70.317793; 19020.388133555
275.87; 70.415383; 19092.067955065
276.88; 70.670193; 19164.007161816
277.90; 71.184723; 19236.470138351
278.92; 71.999355; 19309.762374997
279.94; 73.074556; 19384.149119456
280.96; 74.293917; 19459.777121196
281.97; 75.486979; 19536.619608161
282.99; 76.465723; 19614.458414767
284.01; 77.065421; 19692.907688307
285.03; 77.179875; 19771.473471003
286.05; 76.783079; 19849.635332314
287.06; 75.9332; 19926.932053551
288.08; 74.759391; 20003.033887273
289.10; 73.435966; 20077.788531351
290.12; 72.150866; 20151.234999582
291.14; 71.07558; 20223.586873327
292.15; 70.342044; 20295.192038333
293.17; 70.029277; 20366.478820707
294.19; 70.159725; 20437.898393431
295.21; 70.703321; 20509.871323173
296.23; 71.586709; 20582.743503535
297.24; 72.705566; 20656.754632554
298.26; 73.938986; 20732.021329468
299.28; 75.165563; 20808.536629313
300.30; 76.280684; 20886.187074415
301.32; 77.213472; 20964.787057206
302.33; 77.940505; 21044.127127987
303.35; 78.492592; 21124.029199826
304.37; 78.951346; 21204.398263227
305.39; 79.434281; 21285.258933951
306.41; 80.070288; 21366.76703171
307.42; 80.970519; 21449.191526035
308.44; 82.201828; 21532.869439937
309.46; 83.769882; 21618.143565433
310.48; 85.616795; 21705.297768186
311.49; 87.634118; 21794.505519119
312.51; 89.687646; 21885.803672954
313.53; 91.647148; 21979.0965149
314.55; 93.413046; 22074.186964941
315.57; 94.933486; 22170.825157343
316.58; 96.208639; 22268.761400565
317.60; 97.283169; 22367.791468443
318.62; 98.231085; 22467.786474051
319.64; 99.138616; 22568.705306945
320.66; 100.08992; 22670.592525102
321.67; 101.15801; 22773.567013002
322.69; 102.40038; 22877.806181851
323.71; 103.85673; 22983.52785013
324.73; 105.54581; 23090.968931061
325.75; 107.45989; 23200.358466293
326.76; 109.55765; 23311.883426867
327.78; 111.7586; 23425.648857487
328.80; 113.94308; 23541.637993544
329.82; 115.96069; 23659.680970434
330.84; 117.64745; 23779.440995415
331.85; 118.84861; 23900.423754115
332.87; 119.44163; 24022.010176009
333.89; 119.35305; 24143.506435155
334.91; 118.56505; 24264.200544353
335.93; 117.11038; 24383.413860047
336.94; 115.05871; 24500.538664857
337.96; 112.4998; 24615.058605284
338.98; 109.52949; 24726.55489607
340.00; 106.24274; 24834.705423806
341.02; 102.73435; 24939.284560464
342.03; 99.104325; 25040.168486666
343.05; 95.462826; 25137.345524206
344.07; 91.929462; 25230.92574917
345.09; 88.624183; 25321.14134323
346.11; 85.650737; 25408.330097277
347.12; 83.077128; 25492.899028767
348.14; 80.919497; 25575.271584514
349.16; 79.135362; 25655.827968385
350.18; 77.62958; 25734.851530928
351.20; 76.27253; 25812.493675415
352.21; 74.926451; 25888.76556958
353.23; 73.473605; 25963.558529049
354.25; 71.839737; 26036.688280921
355.27; 70.007873; 26107.953275101
356.28; 68.020171; 26177.194874106
357.30; 65.968288; 26244.347744773
358.32; 63.97493; 26309.471462698
359.34; 62.170412; 26372.758259107
360.36; 60.66844; 26434.516113542
361.37; 59.545085; 26495.130440802
362.39; 58.824358; 26555.011099125
363.41; 58.47298; 26614.534069296
364.43; 58.405668; 26673.98851864
365.45; 58.500571; 26733.539575372
366.46; 58.622391; 26793.214639384
367.48; 58.648754; 26852.916540296
368.50; 58.494169; 26912.461079888
369.52; 58.125981; 26971.63082039
370.54; 57.56842; 27030.232988234
371.55; 56.893697; 27088.14831669
372.57; 56.202453; 27145.35998856
373.59; 55.598593; 27201.956957272
374.61; 55.164807; 27258.112350037
375.63; 54.944578; 27314.043559548
376.64; 54.93444; 27369.964449094
377.66; 55.087382; 27426.041027023
378.68; 55.325612; 27482.360112337
379.70; 55.558995; 27538.916772126
380.72; 55.704787; 27595.621841562
381.73; 55.704583; 27652.326703477
382.75; 55.535451; 27708.859396513
383.77; 55.213473; 27765.064329154
384.79; 54.789273; 27820.837445005
385.81; 54.336427; 27876.149583423
386.82; 53.934885; 27931.052969186
387.84; 53.652697; 27985.669099626
388.86; 53.530023; 28040.160353122
389.88; 53.569329; 28094.691618079
390.90; 53.734543; 28149.391063855
391.91; 53.95982; 28204.319831876
392.93; 54.16592; 28259.458401387
393.95; 54.279902; 28314.712998988
394.97; 54.25266; 28369.939865525
395.99; 54.069416; 28424.980197607
397.00; 53.750419; 28479.695804956
398.02; 53.342259; 28533.99592279
399.04; 52.903145; 28587.849041703
400.06; 52.487297; 28641.278845598
401.07; 52.133543; 28694.348542509
402.09; 51.861459; 28747.141270134
403.11; 51.67561; 28799.744810734
404.13; 51.575618; 28852.246564132
405.15; 51.568009; 28904.74057195
406.16; 51.675357; 28957.343855644
407.18; 51.939346; 29010.215868262
408.20; 52.416288; 29063.573387433
409.22; 53.165823; 29117.693900746
410.24; 54.235248; 29172.903042948
411.25; 55.642974; 29229.545188931
412.27; 57.364815; 29287.940095167
413.29; 59.326441; 29348.33185256
414.31; 61.404373; 29410.838854635
415.33; 63.436602; 29475.414578491
416.34; 65.242244; 29541.828367475
417.36; 66.647731; 29609.67288185
418.38; 67.515304; 29678.40054817
419.40; 67.768315; 29747.385768525
420.42; 67.407732; 29816.003930928
421.43; 66.515449; 29883.713787434
422.45; 65.242521; 29950.127858555
423.47; 63.783765; 30015.05697855
424.49; 62.343389; 30078.519858432
425.51; 61.098636; 30140.715633304
426.52; 60.16904; 30201.965120064
427.54; 59.597763; 30262.633070693
428.56; 59.348721; 30323.047507984
429.58; 59.319732; 30383.432435418
430.60; 59.368366; 30443.866870139
431.61; 59.344604; 30504.277116307
432.63; 59.123101; 30564.461882265
433.65; 58.628203; 30624.142862886
434.67; 57.846642; 30683.028248266
435.69; 56.825711; 30740.874369726
436.70; 55.658022; 30797.531834129
437.72; 54.457064; 30852.966775706
438.74; 53.329869; 30907.254280618
439.76; 52.353655; 30960.548042051
440.78; 51.562138; 31013.036073858
441.79; 50.944411; 31064.895285472
442.81; 50.455764; 31116.257076123
443.83; 50.036504; 31167.192078274
444.85; 49.63273; 31217.716055634
445.87; 49.212926; 31267.812690703
446.88; 48.775984; 31317.464537165
447.90; 48.349302; 31366.682039733
448.92; 47.978805; 31415.522393221
449.94; 47.71495; 31464.094153656
450.95; 47.599379; 31512.548267507
451.97; 47.655874; 31561.0598907
452.99; 47.887209; 31609.807003542
454.01; 48.277404; 31658.951317978
455.03; 48.7975; 31708.625067413
456.04; 49.412697; 31758.925060998
457.06; 50.089245; 31809.913750705
458.08; 50.800328; 31861.626292941
459.10; 51.530767; 31914.082390402
460.12; 52.280335; 31967.301515535
461.13; 53.065168; 32021.319566703
462.15; 53.916453; 32076.204189262
463.17; 54.875857; 32132.065443262
464.19; 55.988039; 32189.058850886
465.21; 57.29176; 32247.379390628
466.22; 58.811907; 32307.247374267
467.24; 60.554713; 32368.889459042
468.26; 62.507423; 32432.519318285
469.28; 64.64209; 32498.322176931
470.30; 66.92189; 32566.445773515
471.31; 69.307984; 32636.99831089
472.33; 71.765762; 32710.052759507
473.35; 74.270678; 32785.657104945
474.37; 76.814932; 32863.851390509
475.39; 79.415896; 32944.693345977
476.40; 82.125333; 33028.293391169
477.42; 85.035611; 33114.855973891
478.44; 88.277076; 33204.718227737
479.46; 92.00092; 33298.371194441
480.48; 96.345386; 33396.44664037
481.49; 101.38927; 33499.656544779
482.51; 107.10351; 33608.68329582
483.53; 113.31611; 33724.034203844
484.55; 119.70552; 33845.889254425
485.57; 125.83142; 33973.980214485
486.58; 131.20153; 34107.537708331
487.60; 135.3611; 34245.329468399
488.62; 137.98343; 34385.790645467
489.64; 138.93684; 34527.22234898
490.66; 138.30938; 34668.01532876
491.67; 136.38392; 34806.848277546
492.69; 133.57039; 34942.817174996
493.71; 130.31397; 35075.471174632
494.73; 127.00381; 35204.755568931
495.74; 123.90497; 35330.885480954
496.76; 121.12781; 35454.188364058
497.78; 118.63703; 35574.955744088
498.80; 116.29176; 35693.335740564
499.82; 113.90103; 35809.282078708
500.83; 111.27816; 35922.558447839
501.85; 108.28154; 36032.784378118
502.87; 104.83621; 36139.503111025
503.89; 100.93747; 36242.253096383
504.91; 96.641843; 36340.630322449
505.92; 92.052055; 36434.335342359
506.94; 87.300873; 36523.203863902
507.96; 82.53599; 36607.221940362
508.98; 77.905753; 36686.526634958
510.00; 73.544814; 36761.392081812
511.01; 69.559612; 36832.200765044
512.03; 66.015262; 36899.401452809
513.05; 62.926867; 36963.458288479
514.07; 60.258509; 37024.798850363
515.09; 57.93187; 37083.770993655
516.10; 55.84401; 37140.617786206
517.12; 53.891005; 37195.476503504
518.14; 51.992009; 37248.402124788
519.16; 50.107631; 37299.409530776
520.18; 48.247532; 37348.523436612
521.19; 46.464793; 37395.822590357
522.21; 44.838106; 37441.465847041
523.23; 43.446343; 37485.692349184
524.25; 42.34246; 37528.7951459
525.27; 41.534314; 37571.075285327
526.28; 40.978346; 37612.789472958
527.30; 40.588503; 37654.10681794
528.32; 40.258205; 37695.087933551
529.34; 39.888857; 37735.693069061
530.36; 39.416017; 37775.816873498
531.37; 38.824681; 37815.338723902
532.39; 38.148576; 37854.172328551
533.41; 37.453728; 37892.29860722
534.43; 36.81222; 37929.771858861
535.45; 36.275756; 37966.699013094
536.46; 35.858865; 38003.201790662
537.48; 35.538054; 38039.377995899
538.50; 35.266965; 38075.278244924
539.52; 35.00113; 38110.907884393
540.54; 34.721671; 38146.253046867
541.55; 34.447376; 38181.318989645
542.57; 34.228969; 38216.162603539
543.59; 34.126762; 38250.902174967
544.61; 34.180176; 38285.696119581
545.62; 34.381831; 38320.695339889
546.64; 34.668082; 38355.98595166
547.66; 34.932032; 38391.545252777
548.68; 35.056248; 38427.231000289
549.70; 34.954171; 38462.812838135
550.71; 34.604828; 38498.039059664
551.73; 34.066978; 38532.71777298
552.75; 33.465886; 38566.784600957
553.77; 32.955929; 38600.332314437
554.79; 32.671405; 38633.590394789
555.80; 32.682671; 38666.859943885
556.82; 32.973141; 38700.425178451
557.84; 33.445352; 38734.471103347
558.86; 33.954016; 38769.034826827
559.88; 34.354565; 38804.006291879
560.89; 34.550689; 38839.177402238
561.91; 34.525419; 38874.322789057
562.93; 34.346727; 38909.286274997
563.95; 34.147745; 38944.047205656
564.97; 34.090047; 38978.749402068
565.98; 34.322969; 39013.688703487
567.00; 34.951462; 39049.267783091
568.02; 36.020192; 39085.934784505
569.04; 37.514933; 39124.123367288
570.06; 39.376396; 39164.206839099
571.07; 41.51881; 39206.471196256
572.09; 43.846183; 39251.104718145
573.11; 46.262475; 39298.197920935
574.13; 48.675892; 39347.747878972
575.15; 51.000233; 39399.663914919
576.16; 53.156659; 39453.775099477
577.18; 55.077609; 39509.841728392
578.20; 56.711943; 39567.572039019
579.22; 58.02853; 39626.642578289
580.24; 59.015375; 39686.717683186
581.25; 59.673251; 39747.46247734
582.27; 60.005713; 39808.545703691
583.29; 60.009869; 39869.63316124
584.31; 59.672954; 39930.377652983
585.33; 58.978028; 39990.414740286
