#Wavenumber (cm^-1); Spectrum (K*cm*km*mol^-1); Integral (K*km*mol^-1)
0.00; 129.2408; 131.56155508114
1.02; 132.83034; 266.77710982289
2.04; 143.16768; 412.51563134742
3.05; 159.07862; 574.45080031246
4.07; 178.96049; 756.62485806419
5.09; 201.17701; 961.41437729646
6.11; 224.39794; 1189.8418014336
7.13; 247.78306; 1442.0742634674
8.14; 270.98317; 1717.9234360299
9.16; 294.0079; 2017.210791417
10.18; 317.05593; 2339.9600434478
11.20; 340.39933; 2686.4718678044
12.22; 364.36534; 3057.3800639017
13.23; 389.39282; 3453.765149993
14.25; 416.09132; 3877.3281609243
15.27; 445.22411; 4330.5470933056
16.29; 477.57479; 4816.6976165753
17.31; 513.72221; 5339.6446540026
18.32; 553.80512; 5903.3943694558
19.34; 597.3768; 6511.4981696553
20.36; 643.41895; 7166.4708935818
21.38; 690.51721; 7869.387617521
22.40; 737.12988; 8619.7540298166
23.41; 781.84372; 9415.637196421
24.43; 823.52562; 10253.950743002
25.45; 861.34097; 11130.758686208
26.47; 894.68665; 12041.511090554
27.48; 923.13785; 12981.225582976
28.50; 946.50132; 13944.723078364
29.52; 965.00098; 14927.052431574
30.54; 979.52432; 15924.165921746
31.56; 991.78047; 16933.755638373
32.57; 1004.2104; 17955.998515201
33.59; 1019.5669; 18993.873615293
34.61; 1040.223; 20052.775745595
35.63; 1067.4184; 21139.361586891
36.65; 1100.7352; 22259.862559527
37.66; 1138.0653; 23418.363965068
38.68; 1176.1739; 24615.658287029
39.70; 1211.7406; 25849.157899218
40.72; 1242.5447; 27114.014820731
41.74; 1268.362; 28405.152615056
42.75; 1291.1969; 29719.535333276
43.77; 1314.6969; 31057.840040529
44.79; 1342.8932; 32424.847383818
45.81; 1378.6832; 33828.287393527
46.83; 1422.5996; 35276.432414911
47.84; 1472.341; 36775.212038723
48.86; 1523.2839; 38325.849330443
49.88; 1569.8489; 39923.887719267
50.90; 1607.2796; 41560.02895921
51.92; 1633.2338; 43222.590515269
52.93; 1648.6392; 44900.834118375
53.95; 1657.517; 46588.114942837
54.97; 1665.8298; 48283.857791118
55.99; 1679.7359; 49993.756481438
57.01; 1703.8194; 51728.171078959
58.02; 1739.8465; 53499.25970013
59.04; 1786.401; 55317.738823818
60.06; 1839.4436; 57190.213072252
61.08; 1893.5467; 59117.761889373
62.10; 1943.3694; 61096.028067217
63.11; 1984.9155; 63116.586345038
64.13; 2016.242; 65169.033709236
65.15; 2037.507; 67243.127867354
66.17; 2050.4634; 69330.411119825
67.19; 2057.6613; 71425.021487642
68.20; 2061.6567; 73523.699082752
69.22; 2064.4652; 75625.235540638
70.24; 2067.362; 77729.720873747
71.26; 2070.9957; 79837.90509301
72.27; 2075.6739; 81950.851550799
73.29; 2081.6521; 84069.883576292
74.31; 2089.2842; 86196.684766766
75.33; 2098.9777; 88333.35349456
76.35; 2110.987; 90482.247153072
77.36; 2125.1527; 92645.56091633
78.38; 2140.723; 94824.724572094
79.40; 2156.3693; 97019.815455148
80.42; 2170.4398; 99229.229496726
81.44; 2181.4017; 101449.80227108
82.45; 2188.338; 103677.43592725
83.47; 2191.3218; 105908.10696818
84.49; 2191.508; 108138.96757722
85.51; 2190.8673; 110369.175913
86.53; 2191.6122; 112600.14252861
87.54; 2195.4945; 114835.06116717
88.56; 2203.2271; 117077.85125141
89.58; 2214.2724; 119331.88503331
90.60; 2227.1267; 121599.00392898
91.62; 2240.048; 123879.27615922
92.63; 2251.9913; 126171.70609599
93.65; 2263.3959; 128475.74548366
94.67; 2276.4821; 130793.10603177
95.69; 2294.8572; 133129.17165559
96.71; 2322.4768; 135493.35284027
97.72; 2362.2525; 137898.02398309
98.74; 2414.762; 140356.14752173
99.76; 2477.5207; 142878.15664442
100.78; 2545.1119; 145468.97076396
101.80; 2610.1976; 148126.03927144
102.81; 2665.1387; 150839.03541322
103.83; 2703.7609; 153591.34735511
104.85; 2722.7628; 156363.00242923
105.87; 2722.3959; 159134.28397396
106.89; 2706.289; 161889.16937331
107.90; 2680.543; 164617.8464398
108.92; 2652.3981; 167317.87329515
109.94; 2628.8253; 169993.90404023
110.96; 2615.3213; 172656.18831779
111.98; 2615.0595; 175318.20600483
112.99; 2628.4279; 177993.83215271
114.01; 2652.9363; 180694.40681479
115.03; 2683.4839; 183426.07758154
116.05; 2713.019; 186187.81384107
117.07; 2733.6213; 188970.52233782
118.08; 2737.9546; 191757.64194173
119.10; 2720.8876; 194527.38808946
120.12; 2680.9155; 197256.44440345
121.14; 2620.9364; 199924.44456372
122.15; 2548.014; 202518.21288115
123.17; 2472.0118; 205034.61419699
124.19; 2403.3426; 207481.11329932
125.21; 2350.4206; 209873.74002664
126.23; 2317.5752; 212232.93157214
127.24; 2304.1084; 214578.41449523
128.26; 2304.8314; 216924.63340749
129.28; 2311.9304; 219278.07874626
130.30; 2317.5467; 221637.24125671
131.32; 2316.204; 223995.03697253
132.33; 2306.2725; 226342.72282889
133.35; 2290.0198; 228673.8641187
134.37; 2272.3213; 230986.98919406
135.39; 2258.5905; 233286.13682104
136.41; 2252.7483; 235579.33742555
137.42; 2255.9923; 237875.84022551
138.44; 2266.7616; 240183.30569543
139.46; 2281.8019; 242506.08155865
140.48; 2297.7921; 244845.13475595
141.50; 2312.7998; 247199.4651369
142.51; 2326.9478; 249568.19758823
143.53; 2342.0443; 251952.29757802
144.55; 2360.3912; 254355.07391365
145.57; 2383.3418; 256781.2130011
146.59; 2410.2761; 259234.7700865
147.60; 2438.4682; 261717.02550035
148.62; 2463.9188; 264225.18846971
149.64; 2482.7952; 266752.56681096
150.66; 2492.8466; 269290.17706584
151.68; 2494.162; 271829.12635359
152.69; 2488.9154; 274362.7348335
153.71; 2480.1766; 276887.44760986
154.73; 2470.2751; 279402.08106503
155.75; 2459.4139; 281905.65829124
156.77; 2445.1516; 284394.71713715
157.78; 2423.0318; 286861.25892081
158.80; 2388.1792; 289292.32233171
159.82; 2337.2889; 291671.58159369
160.84; 2270.2601; 293982.60842239
161.86; 2190.8504; 296212.79963702
162.87; 2106.083; 298356.70120843
163.89; 2024.596; 300417.65261516
164.91; 1954.4995; 302407.24873747
165.93; 1901.4512; 304342.84396461
166.94; 1867.5512; 306243.9305221
167.96; 1851.3228; 308128.49719665
168.98; 1848.6501; 310010.34324179
170.00; 1854.2333; 311897.87273772
171.02; 1863.0023; 313794.32865703
172.03; 1871.0438; 315698.97055157
173.05; 1875.8599; 317608.51501402
174.07; 1876.0741; 319518.27745023
175.09; 1870.9086; 321422.78162754
176.11; 1859.7887; 323315.96624408
177.12; 1842.296; 325191.34404269
178.14; 1818.466; 327042.46399121
179.16; 1789.2168; 328863.80944062
180.18; 1756.6003; 330651.95275798
181.20; 1723.6358; 332406.53963661
182.21; 1693.6701; 334130.62275593
183.23; 1669.4438; 335830.04448568
184.25; 1652.2025; 337511.9153803
185.27; 1641.219; 339182.60550184
186.29; 1633.9539; 340845.90010614
187.30; 1626.8504; 342501.96357913
188.32; 1616.5063; 344147.49718996
189.34; 1600.8177; 345777.06054301
190.36; 1579.6842; 347385.11085359
191.38; 1555.0223; 348968.0564755
192.39; 1530.0862; 350525.61823327
193.41; 1508.3398; 352061.04307049
194.43; 1492.2837; 353580.12343379
195.45; 1482.6441; 355089.39118185
196.47; 1478.1934; 356594.12822642
197.48; 1476.2399; 358096.87672516
198.50; 1473.5981; 359596.93604034
199.52; 1467.6905; 361090.98166925
200.54; 1457.4098; 362574.56194437
201.56; 1443.4688; 364043.95085262
202.57; 1428.1491; 365497.74502902
203.59; 1414.56; 366937.70605242
204.61; 1405.6668; 368368.61415281
205.63; 1403.406; 369797.22091763
206.65; 1408.1553; 371230.66226735
207.66; 1418.7013; 372674.83897694
208.68; 1432.6906; 374133.25613841
209.70; 1447.4045; 375606.65145247
210.72; 1460.6123; 377093.4917645
211.74; 1471.2447; 378591.15536145
212.75; 1479.6943; 380097.42026398
213.77; 1487.6668; 381611.8008952
214.79; 1497.6434; 383136.33725961
215.81; 1512.1323; 384675.62264156
216.82; 1532.9534; 386236.10305057
217.84; 1560.7879; 387824.91775474
218.86; 1595.1368; 389448.69818149
219.88; 1634.6964; 391112.74854445
220.90; 1678.0054; 392820.8856209
221.91; 1724.1138; 394575.95910327
222.93; 1772.9969; 396380.79343595
223.95; 1825.5165; 398239.09041541
224.97; 1882.8927; 400155.79396161
225.99; 1945.8411; 402136.5762835
227.00; 2013.6829; 404186.41854193
228.02; 2083.7882; 406307.62499085
229.04; 2151.6308; 408497.89229788
230.06; 2211.534; 410749.13847807
231.08; 2257.9433; 413047.62737367
232.09; 2286.8529; 415375.54498545
233.11; 2296.926; 417713.71648833
234.13; 2289.9259; 420044.76222772
235.15; 2270.2932; 422355.82276432
236.17; 2243.9884; 424640.10614672
237.18; 2216.9719; 426896.88787522
238.20; 2193.8108; 429130.09262706
239.22; 2176.8447; 431346.02664329
240.24; 2166.1282; 433551.05170899
241.26; 2160.0796; 435749.91949706
242.27; 2156.5114; 437945.15499633
243.29; 2153.5981; 440137.42489675
244.31; 2150.3929; 442326.43212271
245.33; 2146.7165; 444511.69686947
246.35; 2142.5169; 446692.68664229
247.36; 2137.0373; 448868.09842513
248.38; 2128.2202; 451034.53475341
249.40; 2112.6988; 453185.17094835
250.42; 2086.4943; 455309.13212495
251.44; 2046.2478; 457392.12404359
252.45; 1990.5749; 459418.44340639
253.47; 1921.0387; 461373.97787032
254.49; 1842.3219; 463249.38206066
255.51; 1761.4322; 465042.44403512
256.53; 1686.0917; 466758.81259053
257.54; 1622.751; 468410.70310804
258.56; 1574.8203; 470013.80219007
259.58; 1541.6733; 471583.15904567
260.60; 1518.7712; 473129.20262832
261.61; 1498.9237; 474655.04230445
262.63; 1474.365; 476155.88229834
263.65; 1439.0736; 477620.79712009
264.67; 1390.6748; 479036.44408995
265.69; 1331.3728; 480391.72418073
266.70; 1267.6217; 481682.10833259
267.72; 1208.6; 482912.41102247
268.74; 1163.8913; 484097.20217573
269.76; 1140.9991; 485258.68999304
270.78; 1143.3796; 486422.60104457
271.79; 1169.5313; 487613.133402
272.81; 1213.3848; 488848.30672386
273.83; 1265.8715; 490136.90927791
274.85; 1317.2209; 491477.78335534
275.87; 1359.3405; 492861.53330809
276.88; 1387.6279; 494274.07858477
277.90; 1401.751; 495701.00065777
278.92; 1405.2454; 497131.47986152
279.94; 1404.1233; 498560.81677864
280.96; 1404.9595; 499991.00490476
281.97; 1413.0299; 501429.4083722
282.99; 1431.0112; 502886.11597217
284.01; 1458.5347; 504370.84135586
285.03; 1492.6078; 505890.25168271
286.05; 1528.6616; 507446.36317973
287.06; 1561.8415; 509036.25044396
288.08; 1588.15; 510652.91857172
289.10; 1605.1638; 512286.90606862
290.12; 1612.2295; 513928.08612083
291.14; 1610.2061; 515567.20648846
292.15; 1600.9355; 517196.88975668
293.17; 1586.6387; 518812.01951148
294.19; 1569.392; 520409.59281289
295.21; 1550.7538; 521988.19325567
296.23; 1531.5478; 523547.24285088
297.24; 1511.7729; 525086.16244333
298.26; 1490.6188; 526603.54808956
299.28; 1466.5898; 528096.47319099
300.30; 1437.7531; 529560.04384515
301.32; 1402.1179; 530987.33932097
302.33; 1358.1055; 532369.83209755
303.35; 1305.0263; 533698.29256641
304.37; 1243.4392; 534964.06000192
305.39; 1175.2795; 536160.44376872
306.41; 1103.6898; 537283.9523285
307.42; 1032.5689; 538335.06291865
308.44; 965.93537; 539318.3434408
309.46; 907.25654; 540241.89145268
310.48; 858.90095; 541116.21555716
311.49; 821.83083; 541952.80387855
312.51; 795.58174; 542762.67175422
313.53; 778.50045; 543555.15161954
314.55; 768.15677; 544337.10206877
315.57; 761.82147; 545112.60345346
316.58; 756.91156; 545883.10676329
317.60; 751.33371; 546647.93205915
318.62; 743.69179; 547404.97820926
319.64; 733.35403; 548151.50096491
320.66; 720.39377; 548884.83073421
321.67; 705.42827; 549602.92627589
322.69; 689.38726; 550304.69276104
323.71; 673.25056; 550990.03278399
324.73; 657.80194; 551659.64676947
325.75; 643.44875; 552314.64983384
326.76; 630.14934; 552956.11467391
327.78; 617.46831; 553584.67077141
328.80; 604.74816; 554200.27829892
329.82; 591.3514; 554802.24850772
330.84; 576.90291; 555389.51077998
331.85; 561.45723; 555961.05000819
332.87; 545.53501; 556516.38110717
333.89; 530.01252; 557055.91098
334.91; 515.89613; 557581.07098229
335.93; 504.05499; 558094.17720972
336.94; 495.00258; 558598.06847426
337.96; 488.80451; 559095.65037691
338.98; 485.14605; 559589.50811717
340.00; 483.53315; 560081.72399877
341.02; 483.54641; 560573.95338058
342.03; 485.04023; 561067.70340258
343.05; 488.19544; 561564.66528916
344.07; 493.39056; 562066.91558905
345.09; 500.9367; 562576.84753101
346.11; 510.79195; 563096.81169648
347.12; 522.40022; 563628.59257559
348.14; 534.76548; 564172.96076068
349.16; 546.78102; 564729.56024479
350.18; 557.71412; 565297.28915065
351.20; 567.65085; 565875.13321871
352.21; 577.68042; 566463.18695913
353.23; 589.67021; 567063.44578255
354.25; 605.63697; 567679.95808378
355.27; 626.90379; 568318.11909017
356.28; 653.36877; 568983.22030882
357.30; 683.23194; 569678.72094176
358.32; 713.3997; 570404.93105646
359.34; 740.54097; 571158.7698094
360.36; 762.48867; 571934.95036935
361.37; 779.47785; 572728.42518442
362.39; 794.68275; 573537.3779341
363.41; 813.69856; 574365.68795116
364.43; 842.96611; 575223.7910747
365.45; 887.5422; 576127.27073972
366.46; 948.923; 577093.23340245
367.48; 1023.7049; 578135.32083039
368.50; 1103.663; 579258.80212432
369.52; 1177.3909; 580457.33529906
370.54; 1233.1222; 581712.60052912
371.55; 1261.9208; 582997.18142605
372.57; 1260.2551; 584280.06669121
373.59; 1231.1238; 585533.29762984
374.61; 1183.3429; 586737.88966076
375.63; 1129.1849; 587887.35119456
376.64; 1081.0875; 588987.85158411
377.66; 1048.4311; 590055.10919134
378.68; 1035.3417; 591109.04232071
379.70; 1040.115; 592167.83452186
380.72; 1056.3259; 593243.1287334
381.73; 1075.1553; 594337.59040042
382.75; 1088.1267; 595445.25640961
383.77; 1089.3896; 596554.20799647
384.79; 1076.9165; 597650.4624826
385.81; 1052.3983; 598721.75854283
386.82; 1020.0648; 599760.14048624
387.84; 984.97322; 600762.80072256
388.86; 951.40633; 601731.29130655
389.88; 921.88616; 602669.73163668
390.90; 897.0213; 603582.86061167
391.91; 876.0784; 604474.67062013
392.93; 857.92574; 605348.00200347
393.95; 841.91178; 606205.03186169
394.97; 828.32664; 607048.23263284
395.99; 818.29735; 607881.22402314
397.00; 813.20182; 608709.02838392
398.02; 813.86485; 609537.50768607
399.04; 819.86582; 610372.09571399
400.06; 829.23168; 611216.21778228
401.07; 838.64455; 612069.92174134
402.09; 844.11771; 612929.19714555
403.11; 841.94781; 613786.26368412
404.13; 829.67454; 614630.83656171
405.15; 806.78607; 615452.10996952
406.16; 774.98516; 616241.01142184
407.18; 737.94863; 616992.21128812
408.20; 700.63873; 617705.43127901
409.22; 668.32965; 618385.76202519
410.24; 645.57773; 619042.93229647
411.25; 635.37706; 619689.71872885
412.27; 638.70182; 620339.88961756
413.29; 654.54549; 621006.18868294
414.31; 680.44206; 621698.84934143
415.33; 713.32065; 622424.97898647
416.34; 750.44071; 623188.89524935
417.36; 790.11597; 623993.19921159
418.38; 831.98689; 624840.12595893
419.40; 876.74099; 625732.61045599
420.42; 925.37301; 626674.60025275
421.43; 978.25913; 627670.42583352
422.45; 1034.4212; 628723.42199732
423.47; 1091.3254; 629834.34420379
424.49; 1145.3874; 631000.29916455
425.51; 1193.091; 632214.81432603
426.52; 1232.362; 633469.30562862
427.54; 1263.6775; 634755.67476604
428.56; 1290.4175; 636069.26414625
429.58; 1318.1888; 637411.12347317
430.60; 1353.213; 638788.6359259
431.61; 1400.2464; 640214.02637243
432.63; 1460.7371; 641700.99374861
433.65; 1531.9268; 643260.42911995
434.67; 1607.3366; 644896.62839559
435.69; 1678.6178; 646605.38886666
436.70; 1738.2518; 648374.85418637
437.72; 1782.2328; 650189.09027234
438.74; 1811.8003; 652033.4247678
439.76; 1833.5494; 653899.89889778
440.78; 1857.7613; 655791.01972153
441.79; 1895.3905; 657720.44549695
442.81; 1954.6147; 659710.15886756
443.83; 2038.0273; 661784.78276091
444.85; 2141.3705; 663964.60556673
445.87; 2254.2159; 666259.30005855
446.88; 2362.3869; 668664.10802273
447.90; 2451.3711; 671159.49803766
448.92; 2509.6857; 673714.24977412
449.94; 2531.2232; 676290.92574937
450.95; 2515.9722; 678852.07683958
451.97; 2469.0524; 681365.46564542
452.99; 2398.5274; 683807.0630477
454.01; 2312.7904; 686161.38382421
455.03; 2218.3671; 688419.58580921
456.04; 2118.7499; 690576.38176901
457.06; 2014.4706; 692627.02595004
458.08; 1904.1956; 694565.41487655
459.10; 1786.317; 696383.80853469
460.12; 1660.423; 698074.04753898
461.13; 1528.1474; 699629.63560974
462.15; 1393.175; 701047.8276069
463.17; 1260.4904; 702330.9524165
464.19; 1135.1994; 703486.5363748
465.21; 1021.3559; 704526.23256098
466.22; 921.17131; 705463.9452014
467.24; 834.8123; 706313.74809666
468.26; 760.77786; 707088.18712632
469.28; 696.6661; 707797.36315118
470.30; 640.04526; 708448.90161092
471.31; 589.15378; 709048.63473696
472.33; 543.24795; 709601.63771243
473.35; 502.55142; 710113.2133691
474.37; 467.88816; 710589.50332321
475.39; 440.16314; 711037.57040545
476.40; 419.87405; 711464.98406806
477.42; 406.79965; 711879.08855443
478.44; 399.93588; 712286.20602516
479.46; 397.66802; 712691.01491051
480.48; 398.10076; 713096.26430705
481.49; 399.4342; 713502.87108429
482.51; 400.27576; 713910.33453799
483.53; 399.81072; 714317.3246012
484.55; 397.80331; 714722.27120542
485.57; 394.4517; 715123.8060134
486.58; 390.15888; 715520.97091907
487.60; 385.29884; 715913.18851358
488.62; 380.0503; 716300.06332143
489.64; 374.34273; 716681.1280624
490.66; 367.92019; 717055.6549419
491.67; 360.49056; 717422.61877797
492.69; 351.90132; 717780.83913716
493.71; 342.27741; 718129.26276734
494.73; 332.07122; 718467.29693883
495.74; 322.00557; 718795.08471039
496.76; 312.92602; 719113.62989201
497.78; 305.60815; 719424.72580535
498.80; 300.57841; 719730.70165823
499.82; 298.00083; 720034.0536437
500.83; 297.65946; 720337.05812857
501.85; 299.0356; 720641.46346954
502.87; 301.45114; 720948.32772263
503.89; 304.23258; 721258.02336359
504.91; 306.84953; 721570.38294908
505.92; 308.99433; 721884.92584117
506.94; 310.59106; 722201.09413356
507.96; 311.74417; 722518.43624951
508.98; 312.65233; 722836.70283326
510.00; 313.51854; 723155.85118047
511.01; 314.48292; 723475.98122709
512.03; 315.59267; 723797.24094264
513.05; 316.80975; 724119.73959731
514.07; 318.04551; 724443.49620618
515.09; 319.20495; 724768.43306823
516.10; 320.22399; 725094.40727296
517.12; 321.08878; 725421.26179323
518.14; 321.83422; 725748.87514287
519.16; 322.5274; 726077.19411826
520.18; 323.24596; 726406.24456081
521.19; 324.06182; 726736.12550856
522.21; 325.0359; 727066.9980338
523.23; 326.22323; 727399.07920034
524.25; 327.68161; 727732.64494281
525.27; 329.47599; 728068.03727822
526.28; 331.67317; 728405.66625552
527.30; 334.32927; 728745.99902094
528.32; 337.47801; 729089.53707146
529.34; 341.13085; 729436.79355489
530.36; 345.29429; 729788.28824278
531.37; 349.9996; 730144.57273709
532.39; 355.32864; 730506.28195477
533.41; 361.41453; 730874.18634851
534.43; 368.40252; 731249.20422166
535.45; 376.37362; 731632.33632604
536.46; 385.25617; 732024.51048104
537.48; 394.76664; 732426.36588211
538.50; 404.42018; 732838.04817279
539.52; 413.63046; 733259.10613295
540.54; 421.88186; 733688.56366313
541.55; 428.92042; 734125.18614123
542.57; 434.89039; 734567.88579162
543.59; 440.35368; 735016.14683979
544.61; 446.16992; 735470.32856644
545.62; 453.27122; 735931.73911262
546.64; 462.41432; 736402.45693323
547.66; 474.00968; 736884.97833401
548.68; 488.1019; 737381.84500879
549.70; 504.51414; 737895.4186357
550.71; 523.09719; 738427.90900479
551.73; 543.972; 738981.64903129
552.75; 567.6491; 739559.49131678
553.77; 594.95518; 740165.1300197
554.79; 626.77968; 740803.16468855
555.80; 663.73731; 741478.82062928
556.82; 705.89095; 742197.38715891
557.84; 752.66854; 742963.57125268
558.86; 803.04047; 743781.03179908
559.88; 855.92608; 744652.32761249
560.89; 910.70812; 745579.38917616
561.91; 967.68865; 746564.45446662
562.93; 1028.3343; 747611.25440163
563.95; 1095.2244; 748726.14556786
564.97; 1171.7041; 749918.88973451
565.98; 1261.32; 751202.85906441
567.00; 1367.1572; 752594.56610466
568.02; 1491.1941; 754112.53736212
569.04; 1633.7674; 755775.64206014
570.06; 1793.2077; 757601.05012548
571.07; 1965.6914; 759602.03913753
572.09; 2145.3504; 761785.91321856
573.11; 2324.6794; 764152.33648567
574.13; 2495.2537; 766692.39706141
575.15; 2648.7103; 769388.66988761
576.16; 2777.8602; 772216.4116868
577.18; 2877.718; 775145.80440291
578.20; 2946.2022; 778144.9110656
579.22; 2984.3; 781182.79965425
580.24; 2995.6189; 784232.21044228
581.25; 2985.4243; 787271.2435991
582.27; 2959.4343; 790283.82003878
583.29; 2922.7433; 793259.04654553
584.31; 2879.2279; 796189.97630169
585.33; 2831.6487; 799072.47252548
