#Wavenumber (cm^-1); Spectrum (K*cm*km*mol^-1); Integral (K*km*mol^-1)
0.00; 0.11332113; 0.11535602234778
1.02; 0.12018866; 0.23770289281477
2.04; 0.14026412; 0.3804857126434
3.05; 0.17210548; 0.55568166205269
4.07; 0.21373111; 0.77325071212836
5.09; 0.26311621; 1.0410916561988
6.11; 0.31865944; 1.3654732128887
7.13; 0.37947986; 1.7517673371053
8.14; 0.44545711; 2.2052234545304
9.16; 0.51700692; 2.731514189863
10.18; 0.59466482; 3.3368573154462
11.20; 0.67861059; 4.0276536143505
12.22; 0.76828818; 4.809737824167
13.23; 0.86225373; 5.6874749165522
14.25; 0.95832292; 6.6630062990081
15.27; 1.0540014; 7.7359342736054
16.29; 1.1470922; 8.9036246282246
17.31; 1.2363043; 10.162129025252
18.32; 1.3216657; 11.507527657864
19.34; 1.4045809; 12.937330353249
20.36; 1.4874705; 14.451511166384
21.38; 1.5730664; 16.052824928952
22.40; 1.6635626; 17.746259868688
23.41; 1.7599022; 19.537764398237
24.43; 1.8614647; 21.432655101639
25.45; 1.9662991; 23.4342627524
26.47; 2.0718621; 25.543328992769
27.48; 2.176015; 27.758418402184
28.50; 2.2779076; 30.077230016922
29.52; 2.3783762; 32.498314310554
30.54; 2.4796387; 35.022479504683
31.56; 2.5843286; 37.653214522569
32.57; 2.6941855; 40.395779143832
33.59; 2.8088978; 43.255115849636
34.61; 2.9255882; 46.233238439651
35.63; 3.0392352; 49.327048738872
36.65; 3.1439839; 52.527488657146
37.66; 3.2349631; 55.82054145127
38.68; 3.3100051; 59.189983820935
39.70; 3.3706734; 62.621183866483
40.72; 3.4222325; 66.104868892208
41.74; 3.4725669; 69.639792141751
42.75; 3.5304127; 73.233599908484
43.77; 3.6034773; 76.901784347819
44.79; 3.696996; 80.665166726939
45.81; 3.8130403; 84.54667717185
46.83; 3.9505655; 88.568182372631
47.84; 4.1059097; 92.747821297236
48.86; 4.2733679; 97.097925456577
49.88; 4.4455896; 101.62334383018
50.90; 4.6138138; 106.32000720877
51.92; 4.7682156; 111.1738449571
52.93; 4.8987346; 116.16054537035
53.95; 4.9966133; 121.24688206521
54.97; 5.0565223; 126.39420354537
55.99; 5.07874; 131.56414166
57.01; 5.0705856; 136.72577896872
58.02; 5.0463339; 141.86272907006
59.04; 5.0252097; 146.9781756936
60.06; 5.0276716; 152.09612839365
61.08; 5.0708221; 157.25800650125
62.10; 5.1641902; 162.5149292957
63.11; 5.3071336; 167.91736228732
64.13; 5.4886898; 173.50461161248
65.15; 5.6899858; 179.29677162613
66.17; 5.888554; 185.29106553434
67.19; 6.0633489; 191.46329304675
68.20; 6.1991036; 197.77371297116
69.22; 6.2889342; 204.17557656596
70.24; 6.3346773; 210.62400467277
71.26; 6.3451245; 217.08306756916
72.27; 6.3328688; 223.52965476382
73.29; 6.3107561; 229.95373212851
74.31; 6.2888954; 236.35555622379
75.33; 6.2729019; 242.74109969313
76.35; 6.2636416; 249.11721651429
77.36; 6.2583555; 255.48795239883
78.38; 6.2527501; 261.85298223037
79.40; 6.2434676; 268.20856285487
80.42; 6.2303074; 274.5507469204
81.44; 6.2176185; 280.88001426141
82.45; 6.2144305; 287.20603631257
83.47; 6.2331297; 293.55109334373
84.49; 6.2868173; 299.95080210509
85.51; 6.385853; 306.45132492197
86.53; 6.5344076; 313.10306987987
87.54; 6.7280019; 319.95188548128
88.56; 6.9528944; 327.02963195358
89.58; 7.1877762; 334.34647800564
90.60; 7.4076129; 341.88710832033
91.62; 7.5888139; 349.61219336727
92.63; 7.7144321; 357.46515237214
93.65; 7.7779823; 365.38280274282
94.67; 7.7847861; 373.30737902155
95.69; 7.7504345; 381.19698688596
96.71; 7.6967883; 389.03198529416
97.72; 7.6466449; 396.81593984722
98.74; 7.6185567; 404.57130182112
99.76; 7.6231749; 412.33136492675
100.78; 7.6619618; 420.13091141332
101.80; 7.7283625; 427.99805095163
102.81; 7.8108056; 435.94911401141
103.83; 7.8964468; 443.98735615584
104.85; 7.9745032; 452.10505633674
105.87; 8.038326; 460.28772530576
106.89; 8.0858843; 468.51880662818
107.90; 8.1188748; 476.78347087636
108.92; 8.1410453; 485.07070372555
109.94; 8.1564319; 493.37359942139
110.96; 8.1680596; 501.68833164324
111.98; 8.1773561; 510.01252728897
112.99; 8.1842132; 518.34370312714
114.01; 8.1874292; 526.6781527079
115.03; 8.1852275; 535.01036109445
116.05; 8.1756547; 543.33282480605
117.07; 8.1568321; 551.6361279177
118.08; 8.1271702; 559.90923646482
119.10; 8.0856848; 568.14011472304
120.12; 8.0324664; 576.31681890754
121.14; 7.9691962; 584.42911676147
122.15; 7.8994678; 592.47043409378
123.17; 7.8286345; 600.43964622858
124.19; 7.7630158; 608.34206134566
125.21; 7.7085263; 616.18900851519
126.23; 7.669064; 623.99578477605
127.24; 7.6451858; 631.77825403964
128.26; 7.6336148; 639.54894448335
129.28; 7.6279195; 647.31383735025
130.30; 7.6203264; 655.07100076889
131.32; 7.6041965; 662.81174469647
132.33; 7.5763774; 670.52417000566
133.35; 7.5385738; 678.19811278601
134.37; 7.4971258; 685.82986338041
135.39; 7.4610928; 693.42493385122
136.41; 7.4391422; 700.99765956245
137.42; 7.4362402; 708.56743124012
138.44; 7.4513112; 716.1525445455
139.46; 7.4768031; 723.76360751343
140.48; 7.5005014; 731.39879427911
141.50; 7.5091645; 739.04279973537
142.51; 7.4928806; 746.67022888853
143.53; 7.4487117; 754.2526959809
144.55; 7.3823428; 761.76760241448
145.57; 7.3070553; 769.20586935315
146.59; 7.2402029; 776.57608343096
147.60; 7.1981978; 783.90353820715
148.62; 7.1915207; 791.22419590359
149.64; 7.2212842; 798.57515160799
150.66; 7.2784024; 805.98425114034
151.68; 7.3456059; 813.46176092151
152.69; 7.4016876; 820.99635951542
153.71; 7.426727; 828.55644717304
154.73; 7.4068239; 836.09627431573
155.75; 7.337108; 843.56513369089
156.77; 7.2223662; 850.91719083867
157.78; 7.0753358; 858.11957739787
158.80; 6.9133275; 865.15704649188
159.82; 6.7541956; 872.03252612864
160.84; 6.6127106; 878.7639801609
161.86; 6.4981487; 885.37881510632
162.87; 6.4135048; 891.90748628803
163.89; 6.3562967; 898.37792201064
164.91; 6.3205538; 904.8119730028
165.93; 6.2993558; 911.22444542487
166.94; 6.2872093; 917.6245531398
167.96; 6.281637; 924.01898851205
168.98; 6.2835776; 930.41539933486
170.00; 6.2965091; 936.8249739358
171.02; 6.3245756; 943.26311893234
172.03; 6.3703118; 949.74782146478
173.05; 6.4327446; 956.2960778747
174.07; 6.5066017; 962.91951758588
175.09; 6.5830697; 969.62079848505
176.11; 6.6520493; 976.39229758627
177.12; 6.7053062; 983.21800990822
178.14; 6.7395051; 990.07853530688
179.16; 6.7580047; 996.95789250403
180.18; 6.7705847; 1003.8500555209
181.20; 6.7909125; 1010.7629114144
182.21; 6.8323472; 1017.7179460301
183.23; 6.9033443; 1024.7452526655
184.25; 7.0040139; 1031.875036541
185.27; 7.1251351; 1039.1281165966
186.29; 7.2501972; 1046.508504525
187.30; 7.3600286; 1054.0006960029
188.32; 7.4386439; 1061.5729144823
189.34; 7.4784193; 1069.1856226078
190.36; 7.4828055; 1076.8027956907
191.38; 7.4655195; 1084.4023723533
192.39; 7.4462873; 1091.982371542
193.41; 7.4443761; 1099.5604251385
194.43; 7.4719507; 1107.1665485186
195.45; 7.5294413; 1114.8311948337
196.47; 7.6045304; 1122.5722785937
197.48; 7.6752503; 1130.3853522372
198.50; 7.7163698; 1138.2402836858
199.52; 7.7071751; 1146.0858553147
200.54; 7.6382699; 1153.8612844916
201.56; 7.5152791; 1161.5115143013
202.57; 7.3582714; 1169.0019170276
203.59; 7.1970148; 1176.3281675177
204.61; 7.0634315; 1183.5184359852
205.63; 6.983443; 1190.6272796482
206.65; 6.9705399; 1197.7229884957
207.66; 7.0228464; 1204.871943121
208.68; 7.1243757; 1212.1242501175
209.70; 7.2499284; 1219.5043644311
210.72; 7.3720682; 1227.008811765
211.74; 7.4681016; 1234.6110169087
212.75; 7.5251372; 1242.2712818911
213.77; 7.5420013; 1249.9487138081
214.79; 7.5278025; 1257.61169192
215.81; 7.4979328; 1265.2442639415
216.82; 7.4689576; 1272.8473404416
217.84; 7.4540092; 1280.4352001647
218.86; 7.4599513; 1288.0291087195
219.88; 7.4868796; 1295.6504290892
220.90; 7.5297267; 1303.3153659932
221.91; 7.5811081; 1311.0326069097
222.93; 7.6342641; 1318.8039583774
223.95; 7.6850804; 1326.6270385495
224.97; 7.73261; 1334.4985018518
225.99; 7.7781099; 1342.4162821203
227.00; 7.8231192; 1350.3798798753
228.02; 7.8674015; 1358.388555081
229.04; 7.9075646; 1366.4381145704
230.06; 7.9368967; 1374.5175328737
231.08; 7.9465342; 1382.6067617776
232.09; 7.9276457; 1390.6767630461
233.11; 7.8740131; 1398.6921686314
234.13; 7.7842887; 1406.6162386485
235.15; 7.6633132; 1414.4171608279
236.17; 7.5221378; 1422.0743725573
237.18; 7.3767195; 1429.5835546657
238.20; 7.2455568; 1436.9592188392
239.22; 7.1467412; 1444.2342930035
240.24; 7.0949784; 1451.4566748843
241.26; 7.0991012; 1458.6832535623
242.27; 7.1604728; 1465.972305856
243.29; 7.2725186; 1473.3754159508
244.31; 7.4214555; 1480.9301373824
245.33; 7.5881355; 1488.6545318518
246.35; 7.7507867; 1496.5444982251
247.36; 7.8883121; 1504.574459515
248.38; 7.9836928; 1512.7015142918
249.40; 8.0269503; 1520.8726033657
250.42; 8.017084; 1529.0336488783
251.44; 7.9624661; 1537.139095745
252.45; 7.8793858; 1545.1599705244
253.47; 7.7887891; 1553.0886217261
254.49; 7.7117171; 1560.9388169948
255.51; 7.6643851; 1568.7408303351
256.53; 7.6541135; 1576.5323875465
257.54; 7.6772934; 1584.3475408965
258.56; 7.7201675; 1592.2063383183
259.58; 7.7624873; 1600.1082153911
260.60; 7.783253; 1608.0312311127
261.61; 7.7670212; 1615.9377235793
262.63; 7.7089324; 1623.785084151
263.65; 7.6168542; 1631.5387130102
264.67; 7.50982; 1639.1833856651
265.69; 7.4130702; 1646.7295712007
266.70; 7.351102; 1654.2126758468
267.72; 7.3408313; 1661.6853253053
268.74; 7.3869868; 1669.2049591229
269.76; 7.4811638; 1676.8204610056
270.78; 7.6047632; 1684.5617817899
271.79; 7.7347606; 1692.435434294
272.81; 7.8503222; 1700.4267235801
273.83; 7.9380682; 1708.50733446
274.85; 7.9943384; 1716.6452259507
275.87; 8.0239536; 1724.813264483
276.88; 8.0362484; 1732.9938185302
277.90; 8.0401101; 1741.1783036342
278.92; 8.040038; 1749.3627153365
279.94; 8.034737; 1757.5417308863
280.96; 8.0186969; 1765.7044183134
281.97; 7.9859883; 1773.8338097491
282.99; 7.9346115; 1781.9109018156
284.01; 7.869503; 1789.9217163171
285.03; 7.8028219; 1797.8646523101
286.05; 7.7512023; 1805.7550417308
287.06; 7.7308598; 1813.6247234052
288.08; 7.7523153; 1821.5162458138
289.10; 7.8167193; 1829.4733287952
290.12; 7.9152399; 1837.530701482
291.14; 8.0318941; 1845.7068230751
292.15; 8.148964; 1854.0021167829
293.17; 8.2531755; 1862.4034933126
294.19; 8.3404853; 1870.8937474703
295.21; 8.4177395; 1879.462643026
296.23; 8.5004946; 1888.1157796918
297.24; 8.6075867; 1896.8779314837
298.26; 8.7541561; 1905.7892846563
299.28; 8.9454124; 1914.8953284589
300.30; 9.1732543; 1924.2333055323
301.32; 9.4169947; 1933.8193997576
302.33; 9.6481434; 1943.6407934514
303.35; 9.8378958; 1953.6553468393
304.37; 9.9650644; 1963.7993523661
305.39; 10.021993; 1974.001308708
306.41; 10.016564; 1984.197738864
307.42; 9.9696055; 1994.3463670592
308.44; 9.9084293; 2004.4327205698
309.46; 9.8584751; 2014.4682228528
310.48; 9.8356364; 2024.4804762584
311.49; 9.8416622; 2034.4988637414
312.51; 9.8640572; 2044.5400483671
313.53; 9.8804746; 2054.5979451663
314.55; 9.8661713; 2064.6412817934
315.57; 9.8021345; 2074.6194317287
316.58; 9.6813221; 2084.4745998294
317.60; 9.5111321; 2094.1565218445
318.62; 9.3114965; 2103.6352234914
319.64; 9.109433; 2112.9082331848
320.66; 8.9319862; 2122.000609738
321.67; 8.7998794; 2130.958507217
322.69; 8.7237577; 2139.8389160612
323.71; 8.7038406; 2148.6990502269
324.73; 8.732521; 2157.5883798148
325.75; 8.7984468; 2166.5448189855
326.76; 8.890265; 2175.5947251493
327.78; 8.9985984; 2184.7549100395
328.80; 9.1157709; 2194.0343714569
329.82; 9.2338886; 2203.4340716369
330.84; 9.3426537; 2212.9444899257
331.85; 9.428417; 2222.5422116063
332.87; 9.4754174; 2232.1877776762
333.89; 9.4691403; 2241.8269539197
334.91; 9.4007025; 2251.3964634371
335.93; 9.2705643; 2260.8334978061
336.94; 9.0899603; 2270.0866851577
337.96; 8.8792096; 2279.1253373893
338.98; 8.6632072; 2287.9441085351
340.00; 8.4654712; 2296.5615929258
341.02; 8.30268; 2305.0133628879
342.03; 8.1814766; 2313.3417529777
343.05; 8.098496; 2321.5856724755
344.07; 8.0434252; 2329.7735322574
345.09; 8.0038636; 2337.9211199925
346.11; 7.9702109; 2346.0344507131
347.12; 7.9389258; 2354.1159346373
348.14; 7.9131927; 2362.1712233775
349.16; 7.9009966; 2370.2140969811
350.18; 7.9114747; 2378.2676368388
351.20; 7.9508854; 2386.3612950368
352.21; 8.019509; 2394.5248091549
353.23; 8.1103574; 2402.7808029861
354.25; 8.2099345; 2411.1381620654
355.27; 8.3007107; 2419.5879273518
356.28; 8.3645976; 2428.1027267841
357.30; 8.3865987; 2436.6399223749
358.32; 8.3578877; 2445.147891414
359.34; 8.2777549; 2453.574288681
360.36; 8.1540747; 2461.8747848283
361.37; 8.0021792; 2470.0206579618
362.39; 7.8422798; 2478.0037603958
363.41; 7.6958699; 2485.8378238759
364.43; 7.5818208; 2493.5557902824
365.45; 7.5130467; 2501.2037476488
366.46; 7.4945661; 2508.8328924921
367.48; 7.5234689; 2516.4914592196
368.50; 7.5907796; 2524.2185453307
369.52; 7.684636; 2532.0411731431
370.54; 7.7938084; 2539.9749337417
371.55; 7.9105095; 2548.0274910888
372.57; 8.0317384; 2556.2034542442
373.59; 8.158943; 2564.508906122
374.61; 8.2963553; 2572.954237789
375.63; 8.4487302; 2581.5546805535
376.64; 8.619274; 2590.3287295359
377.66; 8.8083154; 2599.2952145037
378.68; 9.0128981; 2608.4699558334
379.70; 9.2271564; 2617.862802921
380.72; 9.4432066; 2627.4755797635
381.73; 9.6523454; 2637.301250905
382.75; 9.8464833; 2647.3245459681
383.77; 10.019791; 2657.5242608095
384.79; 10.170425; 2667.8773143852
385.81; 10.301946; 2678.3642511038
386.82; 10.423842; 2688.9752719524
387.84; 10.550558; 2699.7152848468
388.86; 10.698823; 2710.6062246333
389.88; 10.883618; 2721.6852776246
390.90; 11.113839; 2732.9986857823
391.91; 11.389024; 2744.5922205278
392.93; 11.698406; 2756.5006931226
393.95; 12.022887; 2768.7394735909
394.97; 12.339559; 2781.30061218
395.99; 12.627506; 2794.1548680945
397.00; 12.873166; 2807.2591958369
398.02; 13.073702; 2820.567659995
399.04; 13.237542; 2834.0429067729
400.06; 13.382253; 2847.6654626522
401.07; 13.530669; 2861.4391001606
402.09; 13.706613; 2875.3918405964
403.11; 13.931302; 2889.573305256
404.13; 14.221029; 2904.0496994135
405.15; 14.586035; 2918.8976534116
406.16; 15.030144; 2934.1976918403
407.18; 15.550704; 2950.0276373673
408.20; 16.138655; 2966.4560918402
409.22; 16.778967; 2983.5363559915
410.24; 17.45184; 3001.3015762022
411.25; 18.134996; 3019.762219479
412.27; 18.80695; 3038.9068833555
413.29; 19.450683; 3058.7068389989
414.31; 20.056727; 3079.1237215379
415.33; 20.624672; 3100.1187481421
416.34; 21.162385; 3121.6611426703
417.36; 21.682868; 3143.7333667018
418.38; 22.199407; 3166.3314046984
419.40; 22.720229; 3189.4596173403
420.42; 23.244261; 3213.1212722016
421.43; 23.75946; 3237.3073769724
422.45; 24.244693; 3261.9874280339
423.47; 24.675232; 3287.1057490807
424.49; 25.03078; 3312.5860032282
425.51; 25.303906; 3338.3442880415
426.52; 25.506124; 3364.3084220555
427.54; 25.669061; 3390.4384184669
428.56; 25.839286; 3416.7416962969
429.58; 26.067318; 3443.277100915
430.60; 26.393485; 3470.1445298172
431.61; 26.834911; 3497.4613108333
432.63; 27.378189; 3525.3311257493
433.65; 27.980953; 3553.814527966
434.67; 28.582792; 3582.9105766239
435.69; 29.122799; 3612.5563294085
436.70; 29.558552; 3642.645659839
437.72; 29.880662; 3673.0628843188
438.74; 30.118437; 3703.7221540234
439.76; 30.335242; 3734.6021209038
440.78; 30.615561; 3765.7674408188
441.79; 31.04828; 3797.3732499107
442.81; 31.711236; 3829.6539193787
443.83; 32.66077; 3862.9011741398
444.85; 33.927492; 3897.4378973957
445.87; 35.517097; 3933.5927692686
446.88; 37.413916; 3971.678521771
447.90; 39.585236; 4011.9745833637
448.92; 41.985705; 4054.7142190877
449.94; 44.562414; 4100.0768331169
450.95; 47.261323; 4148.1868200259
451.97; 50.034679; 4199.1199642351
452.99; 52.847445; 4252.9163828491
454.01; 55.679962; 4309.5961811791
455.03; 58.525084; 4369.1721908282
456.04; 61.380855; 4431.6552523614
457.06; 64.243204; 4497.0520621696
458.08; 67.105036; 4565.3620928933
459.10; 69.966694; 4636.5851677839
460.12; 72.857767; 4710.751230308
461.13; 75.86325; 4787.9767451786
462.15; 79.141525; 4868.539402808
463.17; 82.920918; 4952.9493186382
464.19; 87.467548; 5041.9875077779
465.21; 93.028643; 5136.6866518899
466.22; 99.768157; 5238.2463310222
467.24; 107.71971; 5347.9003525387
468.26; 116.7807; 5466.7780666745
469.28; 126.75947; 5595.813740045
470.30; 137.46844; 5735.750676298
471.31; 148.83633; 5887.259636012
472.33; 161.00173; 6051.1524507592
473.35; 174.35241; 6228.6356810239
474.37; 189.49195; 6421.5303050229
475.39; 207.14062; 6632.3905182712
476.40; 228.00174; 6864.4864506271
477.42; 252.63726; 7121.6602835096
478.44; 281.39185; 7408.1050406959
479.46; 314.38308; 7728.1334459366
480.48; 351.54611; 8085.992214601
481.49; 392.69522; 8485.7390033201
482.51; 437.55455; 8931.1506544876
483.53; 485.72116; 9425.5938321435
484.55; 536.55273; 9971.7813607007
485.57; 589.00943; 10571.367545818
486.58; 641.50973; 11224.396773203
487.60; 691.87141; 11928.692013749
488.62; 737.39426; 12679.327552787
489.64; 775.10449; 13468.350474812
490.66; 802.13257; 14284.886819095
491.67; 816.1529; 15115.695254516
492.69; 815.78818; 15946.132419417
493.71; 800.88306; 16761.396818425
494.73; 772.57917; 17547.849075391
495.74; 733.16924; 18294.183724906
496.76; 685.75887; 18992.256663781
497.78; 633.80642; 19637.444253995
498.80; 580.63539; 20228.506022653
499.82; 529.01424; 20767.019686621
500.83; 480.87856; 21256.533307007
501.85; 437.23506; 21701.61972694
502.87; 398.24615; 22107.017122786
503.89; 363.45629; 22476.999940746
504.91; 332.09466; 22815.057974499
505.92; 303.3785; 23123.884193542
506.94; 276.7483; 23405.602019072
507.96; 251.98874; 23662.115686836
508.98; 229.22126; 23895.453036003
510.00; 208.78803; 24107.990240056
511.01; 191.07419; 24302.495525077
512.03; 176.32767; 24481.989482164
513.05; 164.53156; 24649.475512871
514.07; 155.36402; 24807.629385541
515.09; 148.2511; 24958.542612623
516.10; 142.48942; 25103.590691791
517.12; 137.39587; 25243.453759216
518.14; 132.43737; 25378.269290742
519.16; 127.30469; 25507.859967542
520.18; 121.91626; 25631.965462808
521.19; 116.36203; 25750.41699224
522.21; 110.81477; 25863.221641626
523.23; 105.4427; 25970.557761655
524.25; 100.35067; 26072.710418042
525.27; 95.561963; 26169.98837234
526.28; 91.036422; 26262.659521879
527.30; 86.70842; 26350.924951939
528.32; 82.524581; 26434.93141402
529.34; 78.466267; 26514.806688263
530.36; 74.551532; 26590.696930845
531.37; 70.821086; 26662.78973994
532.39; 67.318528; 26731.317096881
533.41; 64.074991; 26796.542672823
534.43; 61.103652; 26858.743553744
535.45; 58.403368; 26918.195662075
536.46; 55.966168; 26975.16680602
537.48; 53.78252; 27029.915090624
538.50; 51.84095; 27082.68694046
539.52; 50.122854; 27133.70984304
540.54; 48.596726; 27183.179213272
541.55; 47.216698; 27231.243774786
542.57; 45.928087; 27277.996584982
543.59; 44.678783; 27323.477657965
544.61; 43.431983; 27367.689542142
545.62; 42.174593; 27410.621458169
546.64; 40.917352; 27452.273556857
547.66; 39.686327; 27492.67252517
548.68; 38.509324; 27531.873355113
549.70; 37.402953; 27569.947947546
550.71; 36.365726; 27606.966686943
551.73; 35.379785; 27642.981781472
552.75; 34.420082; 27678.019939513
553.77; 33.466631; 27712.087525748
554.79; 32.514363; 27745.185743798
555.80; 31.576306; 27777.329060275
556.82; 30.678824; 27808.558779711
557.84; 29.850991; 27838.945800457
558.86; 29.112531; 27868.581100857
559.88; 28.465251; 27897.557497548
560.89; 27.89136; 27925.94969887
561.91; 27.359388; 27953.800374828
562.93; 26.835482; 27981.11773769
563.95; 26.295975; 28007.885905609
564.97; 25.736627; 28034.084681201
565.98; 25.17519; 28059.711937807
567.00; 24.64619; 28084.800695917
568.02; 24.189447; 28109.424509155
569.04; 23.835907; 28133.688433771
570.06; 23.595326; 28157.707457096
571.07; 23.449823; 28181.57836492
572.09; 23.355586; 28205.353343754
573.11; 23.252499; 28229.023383982
574.13; 23.078983; 28252.516792646
575.15; 22.787674; 28275.713661297
576.16; 22.35724; 28298.472367328
577.18; 21.796896; 28320.660666699
578.20; 21.142517; 28342.182836246
579.22; 20.446025; 28362.996007823
580.24; 19.761818; 28383.112685521
581.25; 19.134757; 28402.5910426
582.27; 18.593349; 28421.518269722
583.29; 18.149497; 28439.993674003
584.31; 17.803618; 28458.116988659
