#Wavenumber (cm^-1); Spectrum (K*cm*km*mol^-1); Integral (K*km*mol^-1)
0.00; 25.318147; 25.77278080491
1.02; 26.459197; 52.707101108713
2.04; 29.806326; 83.048654382729
3.05; 35.139491; 118.81914002833
4.07; 42.11712; 161.69255095785
5.09; 50.309311; 212.90525890742
6.11; 59.237883; 273.20686756198
7.13; 68.421012; 342.85650515233
8.14; 77.421683; 421.66843733218
9.16; 85.898474; 509.10937710522
10.18; 93.653571; 604.44467121824
11.20; 100.66784; 706.92019100641
12.22; 107.10964; 815.9531858056
13.23; 113.30624; 931.29404740513
14.25; 119.67577; 1053.1188152241
15.27; 126.6314; 1182.0241186017
16.29; 134.48244; 1318.9214345631
17.31; 143.36298; 1464.8587648361
18.32; 153.21335; 1620.8233481946
19.34; 163.82235; 1787.5874298025
20.36; 174.91652; 1965.644897577
21.38; 186.264; 2155.2536118841
22.40; 197.75442; 2356.5590766591
23.41; 209.42637; 2569.7460867933
24.43; 221.43654; 2795.1589322846
25.45; 233.98984; 3033.3504928747
26.47; 247.26626; 3285.056871339
27.48; 261.37892; 3551.1293348724
28.50; 276.3789; 3832.4711322998
29.52; 292.29402; 4130.0138273016
30.54; 309.16564; 4444.7311058007
31.56; 327.0422; 4777.6459498785
32.57; 345.90624; 5129.7635749707
33.59; 365.54794; 5501.8756025872
34.61; 385.43582; 5894.2326373236
35.63; 404.65642; 6306.1554118446
36.65; 421.98485; 6735.7177831414
37.66; 436.10698; 7179.6558716192
38.68; 445.95422; 7633.6180244565
39.70; 451.05781; 8092.7754138676
40.72; 451.80421; 8552.6926071565
41.74; 449.49103; 9010.2550818354
42.75; 446.14068; 9464.4070398599
43.77; 444.10683; 9916.4886311254
44.79; 445.57828; 10370.068092947
45.81; 452.11903; 10830.305758195
46.83; 464.37017; 11303.014554887
47.84; 481.98313; 11793.652578205
48.86; 503.77824; 12306.477086447
49.88; 528.05561; 12844.014910813
50.90; 552.95099; 13406.895152932
51.92; 576.73743; 13993.988969982
52.93; 598.01511; 14602.742548283
53.95; 615.78571; 15229.585828433
54.97; 629.45069; 15870.339472409
55.99; 638.78753; 16520.597611934
57.01; 643.94272; 17176.103514853
58.02; 645.44706; 17833.140770395
59.04; 644.2256; 18488.934636275
60.06; 641.55987; 19142.014897359
61.08; 638.96974; 19792.458522126
62.10; 638.01276; 20441.927981736
63.11; 640.03425; 21093.45523437
64.13; 645.92742; 21750.981471212
65.15; 655.96666; 22418.727225068
66.17; 669.75977; 23100.513772941
67.19; 686.3324; 23799.170535082
68.20; 704.32468; 24516.142663668
69.22; 722.25543; 25251.367524142
70.24; 738.79869; 26003.432707065
71.26; 753.02002; 26769.974597265
72.27; 764.53024; 27548.233389922
73.29; 773.52777; 28335.651281158
74.31; 780.71706; 29130.387561716
75.33; 787.10966; 29931.6312275
76.35; 793.7392; 30739.623482912
77.36; 801.34827; 31555.361446958
78.38; 810.12578; 32380.034530607
79.40; 819.57731; 33214.328869205
80.42; 828.58851; 34057.79621996
81.44; 835.69211; 34908.494722867
82.45; 839.48513; 35763.054362644
83.47; 839.08442; 36617.206098812
84.49; 834.4802; 37466.670930144
85.51; 826.66518; 38308.180416292
86.53; 817.4802; 39140.339987775
87.54; 809.20746; 39964.07826185
88.56; 804.02877; 40782.544857228
89.58; 803.51448; 41600.487926154
90.60; 808.2998; 42423.30224749
91.62; 818.04037; 43256.032040818
92.63; 831.64066; 44102.606349919
93.65; 847.65559; 44965.48316025
94.67; 864.71131; 45845.721963894
95.69; 881.79793; 46743.35420608
96.71; 898.34813; 47657.83383591
97.72; 914.10789; 48588.356221396
98.74; 928.88876; 49533.924895825
99.76; 942.3337; 50493.179940859
100.78; 953.814; 51464.121438541
101.80; 962.51177; 52443.916884248
102.81; 967.65871; 53428.951696011
103.83; 968.83308; 54415.181960318
104.85; 966.19009; 55398.721781442
105.87; 960.52716; 56376.496982911
106.89; 953.1502; 57346.762752268
107.90; 945.58447; 58309.326940234
108.92; 939.23052; 59265.423084453
109.94; 935.08157; 60217.295768077
110.96; 933.58965; 61167.649740662
111.98; 934.70791; 62119.142055289
112.99; 938.07102; 63074.057871732
114.01; 943.23053; 64034.225852091
115.03; 949.85179; 65001.133990677
116.05; 957.804; 65976.137131345
117.07; 967.12205; 66960.625649244
118.08; 977.86786; 67956.052930767
119.10; 989.95202; 68963.781365173
120.12; 1002.9853; 69984.777081807
121.14; 1016.2133; 71019.238382936
122.15; 1028.5588; 72066.266849002
123.17; 1038.7611; 73123.680774124
124.19; 1045.5792; 74188.035255457
125.21; 1048.01; 75254.864222847
126.23; 1045.4718; 76319.109448793
127.24; 1037.9131; 77375.660160291
128.26; 1025.8209; 78419.90151984
129.28; 1010.1258; 79448.165983488
130.30; 992.02152; 80458.001085386
131.32; 972.74096; 81448.209406124
132.33; 953.34582; 82418.674314084
133.35; 934.58829; 83370.044859652
134.37; 916.88771; 84303.396983302
135.39; 900.43332; 85219.999245935
136.41; 885.38314; 86121.281072514
137.42; 872.09373; 87009.034858654
138.44; 861.29783; 87885.798882801
139.46; 854.15608; 88755.292908831
140.48; 852.14398; 89622.738705064
141.50; 856.78473; 90494.908585766
142.51; 869.28662; 91379.804856162
143.53; 890.17445; 92285.964031147
144.55; 919.00867; 93221.475195659
145.57; 954.26537; 94192.876166069
146.59; 993.4132; 95204.127935814
147.60; 1033.1831; 96255.863782472
148.62; 1069.9937; 97345.07115348
149.64; 1100.4708; 98465.302891268
150.66; 1121.9885; 99607.438724275
151.68; 1133.1475; 100760.93396768
152.69; 1134.1062; 101915.4051091
153.71; 1126.6841; 103062.32091219
154.73; 1114.1819; 104196.50997659
155.75; 1100.9049; 105317.18369327
156.77; 1091.4438; 106428.22634454
157.78; 1089.8301; 107537.62639787
158.80; 1098.7407; 108656.09700994
159.82; 1118.93; 109795.11949071
160.84; 1149.0371; 110964.78971173
161.86; 1185.8258; 112171.90920337
162.87; 1224.8156; 113418.7185813
163.89; 1261.167; 114702.53211597
164.91; 1290.6307; 116016.33846763
165.93; 1310.3683; 117350.2368309
166.94; 1319.4955; 118693.42631801
167.96; 1319.2678; 120036.38404598
168.98; 1312.8942; 121372.85368399
170.00; 1305.0169; 122701.30456489
171.02; 1300.9291; 124025.59426357
172.03; 1305.6289; 125354.6681372
173.05; 1322.8407; 126701.26284763
174.07; 1354.1731; 128079.75263168
175.09; 1398.6077; 129503.47489786
176.11; 1452.497; 130982.05411701
177.12; 1510.1714; 132519.34342499
178.14; 1565.1061; 134112.55384678
179.16; 1611.4172; 135752.90704145
180.18; 1645.3066; 137427.75816126
181.20; 1666.0172; 139123.69177989
182.21; 1675.9578; 140829.7445148
183.23; 1679.8873; 142539.79730554
184.25; 1683.3619; 144253.38711962
185.27; 1690.9301; 145974.68095796
186.29; 1704.6962; 147709.98810353
187.30; 1723.7981; 149464.74022814
188.32; 1745.0524; 151241.12830964
189.34; 1764.6092; 153037.424349
190.36; 1780.0664; 154849.45517922
191.38; 1792.2687; 156673.90736209
192.39; 1806.0583; 158512.3967506
193.41; 1829.5586; 160374.80843163
194.43; 1872.056; 162280.48067605
195.45; 1941.047; 164256.38274872
196.47; 2039.3535; 166332.35665904
197.48; 2163.2657; 168534.46776862
198.50; 2302.4086; 170878.22033944
199.52; 2441.538; 173363.60070008
200.54; 2563.8885; 175973.52856938
201.56; 2655.2173; 178676.42520083
202.57; 2707.452; 181432.49447227
203.59; 2720.9264; 184202.28009238
204.61; 2704.5575; 186955.4029438
205.63; 2673.8636; 189677.28075444
206.65; 2647.2948; 192372.11258157
207.66; 2641.7877; 195061.33849456
208.68; 2668.6506; 197777.90968147
209.70; 2730.7849; 200557.73090678
210.72; 2821.9024; 203430.30577889
211.74; 2927.8856; 206410.76694025
212.75; 3029.9132; 209495.087831
213.77; 3108.5604; 212659.46822052
214.79; 3147.8882; 215863.88254951
215.81; 3138.5968; 219058.83862601
216.82; 3079.6051; 222193.74368005
217.84; 2977.837; 225225.05324253
218.86; 2846.4342; 228122.60042942
219.88; 2701.9465; 230873.06541071
220.90; 2561.2086; 233480.26527154
221.91; 2438.5694; 235962.62373425
222.93; 2343.9482; 238348.66187805
223.95; 2281.9234; 240671.56144844
224.97; 2251.8109; 242963.80782451
225.99; 2248.5174; 245252.70151728
227.00; 2263.8846; 247557.2383096
228.02; 2288.2535; 249886.58164236
229.04; 2312.0273; 252240.12561625
230.06; 2327.0583; 254608.97059789
231.08; 2327.7159; 256978.48492657
232.09; 2311.5023; 259331.49456146
233.11; 2279.1235; 261651.54392678
234.13; 2233.9863; 263925.64562266
235.15; 2181.2116; 266146.02489429
236.17; 2126.3713; 268310.57911002
237.18; 2074.2514; 270422.07751148
238.20; 2027.9488; 272486.44188996
239.22; 1988.5264; 274510.67596998
240.24; 1955.2853; 276501.0720784
241.26; 1926.5279; 278462.19431471
242.27; 1900.5387; 280396.86069306
243.29; 1876.4607; 282307.0167556
244.31; 1854.7961; 284195.11917338
245.33; 1837.3998; 286065.51283613
246.35; 1826.9973; 287925.31729979
247.36; 1826.3943; 289784.50787495
248.38; 1837.608; 291655.11349057
249.40; 1861.147; 293549.68081934
250.42; 1895.5967; 295479.31642083
251.44; 1937.5855; 297451.69483316
252.45; 1982.1313; 299469.41892026
253.47; 2023.3089; 301529.06007884
254.49; 2055.1427; 303621.10670435
255.51; 2072.592; 305730.91591912
256.53; 2072.4679; 307840.5988394
257.54; 2054.1026; 309931.58666431
258.56; 2019.6041; 311987.45649194
259.58; 1973.5953; 313996.49133821
260.60; 1922.4441; 315953.45643657
261.61; 1873.1241; 317860.21597851
262.63; 1831.9575; 319725.06968092
263.65; 1803.5357; 321560.99116503
264.67; 1790.0746; 323383.20989236
265.69; 1791.3374; 325206.71404384
266.70; 1805.0952; 327044.22301621
267.72; 1827.9547; 328905.00201953
268.74; 1856.2987; 330794.63395976
269.76; 1887.0933; 332715.61346212
270.78; 1918.3974; 334668.45927044
271.79; 1949.5227; 336652.98926456
272.81; 1980.8953; 338669.45518613
273.83; 2013.7316; 340719.34706444
274.85; 2049.6456; 342805.79787857
275.87; 2090.2779; 344933.61055132
276.88; 2136.9972; 347108.9814538
277.90; 2190.6978; 349339.01725435
278.92; 2251.6997; 351631.1503622
279.94; 2319.7528; 353992.55856514
280.96; 2394.1306; 356429.68020598
281.97; 2473.7754; 358947.87686103
282.99; 2557.4308; 361551.23109852
284.01; 2643.6944; 364242.39790778
285.03; 2730.9542; 367022.39145219
286.05; 2817.2384; 369890.21857406
287.06; 2900.0811; 372842.37598581
288.08; 2976.5521; 375872.37756833
289.10; 3043.5734; 378970.60396193
290.12; 3098.5475; 382124.79158166
291.14; 3140.1747; 385321.35391935
292.15; 3169.2034; 388547.46622777
293.17; 3188.7976; 391793.52456147
294.19; 3204.2709; 395055.33406378
295.21; 3222.1137; 398335.30680619
296.23; 3248.4777; 401642.11689886
297.24; 3287.4915; 404988.6413434
298.26; 3339.8803; 408388.49532794
299.28; 3402.3018; 411851.8917708
300.30; 3467.6151; 415381.7743556
301.32; 3526.029; 418971.11975272
302.33; 3566.8351; 422602.00395885
303.35; 3580.2937; 426246.58843862
304.37; 3559.2476; 429869.74894865
305.39; 3500.166; 433432.76690699
306.41; 3403.5054; 436897.38852885
307.42; 3273.4443; 440229.61357383
308.44; 3117.1459; 443402.7335996
309.46; 2943.7255; 446399.31910635
310.48; 2763.0702; 449212.00534353
311.49; 2584.6267; 451843.04383404
312.51; 2416.2688; 454302.70120259
313.53; 2263.3863; 456606.7307897
314.55; 2128.3667; 458773.31627644
315.57; 2010.624; 460820.04478583
316.58; 1907.2405; 462761.53330416
317.60; 1814.1283; 464608.23764148
318.62; 1727.4414; 466366.69848177
319.64; 1644.8455; 468041.08018783
320.66; 1566.2518; 469635.45689421
321.67; 1493.7628; 471156.04297437
322.69; 1430.8257; 472612.56178558
323.71; 1380.8644; 474018.2221455
324.73; 1345.8564; 475388.24591353
325.75; 1325.3558; 476737.40092938
326.76; 1316.3196; 478077.35751983
327.78; 1313.8183; 479414.76787491
328.80; 1312.3971; 480750.73147125
329.82; 1307.6262; 482081.83852785
330.84; 1297.3115; 483402.44569088
331.85; 1281.9597; 484707.42532902
332.87; 1264.3562; 485994.48539158
333.89; 1248.4213; 487265.32439695
334.91; 1237.7465; 488525.29690945
335.93; 1234.3057; 489781.7668727
336.94; 1237.7501; 491041.74302118
337.96; 1245.478; 492309.58592356
338.98; 1253.4064; 493585.49958959
340.00; 1257.1452; 494865.21917461
341.02; 1253.1782; 496140.90054576
342.03; 1239.6908; 497402.85225808
343.05; 1216.8392; 498641.54209127
344.07; 1186.4612; 499849.30841721
345.09; 1151.4003; 501021.38422769
346.11; 1114.7123; 502156.11327855
347.12; 1079.0085; 503254.497336
348.14; 1046.0929; 504319.37474997
349.16; 1016.9205; 505354.55588878
350.18; 991.78319; 506364.14837797
351.20; 970.57672; 507352.15359799
352.21; 953.01035; 508322.27701161
353.23; 938.68989; 509277.82281842
354.25; 927.08541; 510221.5557604
355.27; 917.45789; 511155.48830318
356.28; 908.83543; 512080.64355482
357.30; 900.09819; 512996.90466902
358.32; 890.1716; 513903.06094887
359.34; 878.26892; 514797.10080578
360.36; 864.09384; 515676.7110506
361.37; 847.92519; 516539.86230568
362.39; 830.55016; 517385.32652647
363.41; 813.07106; 518212.9977802
364.43; 796.65516; 519023.95835473
365.45; 782.31088; 519820.31707248
366.46; 770.75286; 520604.91022353
367.48; 762.3752; 521380.97527675
368.50; 757.30838; 522151.88253081
369.52; 755.50999; 522920.95909798
370.54; 756.84146; 523691.39104758
371.55; 761.10756; 524466.16570108
372.57; 768.06555; 525248.0232918
373.59; 777.43024; 526039.41373205
374.61; 788.89813; 526842.47798097
375.63; 802.1924; 527659.07522941
376.64; 817.10428; 528490.85212439
377.66; 833.4933; 529339.31233545
378.68; 851.22221; 530205.81980906
379.70; 870.03809; 531091.48104205
380.72; 889.45499; 531996.9078434
381.73; 908.7193; 532921.94487589
382.75; 926.92806; 533865.51764434
383.77; 943.31663; 534825.77326357
384.79; 957.65123; 535800.62089429
385.81; 970.58712; 536788.63669819
386.82; 983.81954; 537790.1225313
387.84; 999.88958; 538807.96697756
388.86; 1021.6088; 539847.92068132
389.88; 1051.208; 540918.0050852
390.90; 1089.4455; 542027.01361708
391.91; 1134.9772; 543182.37142451
392.93; 1184.2544; 544387.89131474
393.95; 1232.0792; 545642.09473478
394.97; 1272.7409; 546937.69002376
395.99; 1301.4557; 548262.51577648
397.00; 1315.6983; 549601.83984673
398.02; 1316.0129; 550941.4841669
399.04; 1306.0285; 552270.96481847
400.06; 1291.6418; 553585.80047559
401.07; 1279.5987; 554888.37673607
402.09; 1275.9039; 556187.19183861
403.11; 1284.5505; 557494.80881529
404.13; 1306.9529; 558825.2305048
405.15; 1342.2271; 560191.55976804
406.16; 1388.1674; 561604.65423865
407.18; 1442.5286; 563073.08611177
408.20; 1504.1211; 564604.21647662
409.22; 1573.306; 566205.77406556
410.24; 1651.7122; 567887.14582297
411.25; 1741.2961; 569659.71007775
412.27; 1843.1193; 571535.92598352
413.29; 1956.3338; 573527.3894018
414.31; 2077.7847; 575642.48454957
415.33; 2202.4067; 577884.43957978
416.34; 2324.2853; 580250.4616965
417.36; 2437.9927; 582732.23307211
418.38; 2539.7069; 585317.54505966
419.40; 2627.7009; 587992.43116353
420.42; 2702.0409; 590742.99217282
421.43; 2763.6372; 593556.25560366
422.45; 2813.0492; 596419.8182863
423.47; 2849.5396; 599320.52661366
424.49; 2870.7793; 602242.85609005
425.51; 2873.3493; 605167.8017164
426.52; 2853.8768; 608072.92518588
427.54; 2810.3964; 610933.78743135
428.56; 2743.4338; 613726.48460696
429.58; 2656.4079; 616430.59321421
430.60; 2555.1892; 619031.66553882
431.61; 2446.9481; 621522.55314241
432.63; 2338.6667; 623903.21490633
433.65; 2235.7811; 626179.14360907
434.67; 2141.3557; 628358.95133229
435.69; 2055.9864; 630451.85677843
436.70; 1978.3845; 632465.76687484
437.72; 1906.3838; 634406.38334899
438.74; 1838.0137; 636277.4019972
439.76; 1772.3107; 638081.53782275
440.78; 1709.6662; 639821.90426355
441.79; 1651.678; 641503.2411463
442.81; 1600.6191; 643132.60232909
443.83; 1558.7238; 644719.315942
444.85; 1527.498; 646274.24294436
445.87; 1507.2191; 647808.52697328
446.88; 1496.7226; 649332.12597132
447.90; 1493.5034; 650852.44797604
448.92; 1494.1188; 652373.3963913
449.94; 1494.8375; 653895.07642012
450.95; 1492.4482; 655414.32427687
451.97; 1485.0953; 656926.0872309
452.99; 1472.9684; 658425.50550197
454.01; 1458.65; 659910.34826926
455.03; 1446.9529; 661383.2838876
456.04; 1444.1667; 662853.38330755
457.06; 1456.7801; 664336.32260458
458.08; 1489.9103; 665852.98695477
459.10; 1545.8062; 667426.5510018
460.12; 1622.8385; 669078.53059783
461.13; 1715.3138; 670824.6460538
462.15; 1814.2654; 672671.48994141
463.17; 1909.1112; 674614.88273266
464.19; 1989.8197; 676640.433325
465.21; 2049.0586; 678726.28659762
466.22; 2083.7781; 680847.48282056
467.24; 2095.8169; 682980.93402194
468.26; 2091.3746; 685109.86308719
469.28; 2079.4941; 687226.6983293
470.30; 2069.9561; 689333.82427768
471.31; 2071.1228; 691442.13789559
472.33; 2088.2559; 693567.89229335
473.35; 2122.6763; 695728.68514411
474.37; 2171.8944; 697939.57993569
475.39; 2230.5901; 700210.22443339
476.40; 2292.1283; 702543.5120942
477.42; 2350.2074; 704935.9218408
478.44; 2400.2572; 707379.28010398
479.46; 2440.3026; 709863.40287738
480.48; 2471.163; 712378.94016248
481.49; 2496.0042; 714919.76471608
482.51; 2519.3906; 717484.39566717
483.53; 2546.0693; 720076.18432602
484.55; 2579.7598; 722702.26844264
485.57; 2622.2197; 725371.57491165
486.58; 2672.8003; 728092.37031199
487.60; 2728.6074; 730869.97485096
488.62; 2785.2399; 733705.22891667
489.64; 2837.9294; 736594.11860751
490.66; 2882.7705; 739528.65457156
491.67; 2917.6843; 742498.73124889
492.69; 2942.8044; 745494.37912718
493.71; 2960.1373; 748507.67116003
494.73; 2972.578; 751533.62724501
495.74; 2982.5898; 754569.77499099
496.76; 2990.9994; 757614.48330333
497.78; 2996.3483; 760664.63657387
498.80; 2995.0788; 763713.49749876
499.82; 2982.5461; 766749.6006955
500.83; 2954.5549; 769757.21007449
501.85; 2908.9102; 772718.3551562
502.87; 2846.4447; 775615.91302477
503.89; 2771.1464; 778436.8204832
504.91; 2689.3151; 781174.42717576
505.92; 2608.0074; 783829.26614746
506.94; 2533.2744; 786408.03016573
507.96; 2468.7556; 788921.11683216
508.98; 2415.0559; 791379.53950004
510.00; 2370.0494; 793792.14752802
511.01; 2329.9363; 796163.92214867
512.03; 2290.6418; 798495.69668907
513.05; 2249.0747; 800785.15771806
514.07; 2203.8648; 803028.59701381
515.09; 2155.4264; 805222.72809555
516.10; 2105.447; 807365.98225759
517.12; 2056.0821; 809458.98508575
518.14; 2009.1884; 811504.2521607
519.16; 1965.8452; 813505.39772039
520.18; 1926.2538; 815466.2410066
521.19; 1889.9413; 817390.11968513
522.21; 1856.0959; 819279.54520577
523.23; 1823.8628; 821136.15884406
524.25; 1792.503; 822960.84959495
525.27; 1761.4248; 824753.90400584
526.28; 1730.1699; 826515.14232338
527.30; 1698.4459; 828244.08700632
528.32; 1666.2354; 829940.24274544
529.34; 1633.9306; 831603.51359317
530.36; 1602.3808; 833234.66807881
531.37; 1572.7444; 834835.65397248
532.39; 1546.1172; 836409.53460748
533.41; 1523.0267; 837959.91009858
534.43; 1502.9841; 839489.88305944
535.45; 1484.3192; 841000.85600453
536.46; 1464.4515; 842491.6044103
537.48; 1440.5964; 843958.06933279
538.50; 1410.7262; 845394.12772457
539.52; 1374.466; 846793.27480337
540.54; 1333.5808; 848150.80248259
541.55; 1291.8161; 849465.8155615
542.57; 1254.0631; 850742.39764143
543.59; 1225.0564; 851989.4521475
544.61; 1207.9966; 853219.14054567
545.62; 1203.5361; 854444.28832047
546.64; 1209.4671; 855675.47365254
547.66; 1221.2286; 856918.63169399
548.68; 1233.0821; 858173.85603394
549.70; 1239.5958; 859435.71103105
550.71; 1236.9889; 860694.91235453
551.73; 1223.9533; 861940.84402619
552.75; 1201.7606; 863164.18447772
553.77; 1173.703; 864358.96346466
554.79; 1144.1205; 865523.62875049
555.80; 1117.3656; 866661.05868582
556.82; 1097.0228; 867777.78053248
557.84; 1085.5624; 868882.83622266
558.86; 1084.4231; 869986.73218379
559.88; 1094.3639; 871100.74735992
560.89; 1115.8545; 872236.63907229
561.91; 1149.3057; 873406.58264463
562.93; 1195.0439; 874623.08576152
563.95; 1253.0702; 875898.65713902
564.97; 1322.7391; 877245.14847278
565.98; 1402.5244; 878672.85776812
567.00; 1489.9917; 880189.60502024
568.02; 1582.0061; 881800.01893873
569.04; 1675.1036; 883505.20211414
570.06; 1765.898; 885302.81004507
571.07; 1851.3918; 887187.44699651
572.09; 1929.1153; 889151.20313808
573.11; 1997.0942; 891184.15890513
574.13; 2053.7166; 893274.75380714
575.15; 2097.5999; 895410.0200179
576.16; 2127.546; 897575.77007974
577.18; 2142.625; 899756.8698912
578.20; 2142.3747; 901937.71489042
579.22; 2127.0645; 904102.97480271
580.24; 2097.9595; 906238.60709126
581.25; 2057.5282; 908333.08198396
582.27; 2009.5493; 910378.71646129
583.29; 1959.0741; 912372.9693844
584.31; 1912.1859; 914319.4920921
585.33; 1875.4929; 916228.66290691
