#Wavenumber (cm^-1); Spectrum (K*cm*km*mol^-1); Integral (K*km*mol^-1)
0.00; 0.13183411; 0.13420143833719
1.02; 0.14073042; 0.27745893243333
2.04; 0.16704459; 0.44750311410342
3.05; 0.20971217; 0.66098105551242
4.07; 0.26713473; 0.93291268093504
5.09; 0.33737324; 1.2763440817635
6.11; 0.41831868; 1.7021744422284
7.13; 0.50780997; 2.2191030759193
8.14; 0.60371651; 2.8336604338397
9.16; 0.70403669; 3.5503394019414
10.18; 0.80706248; 4.3718941805206
11.20; 0.91161729; 5.2998812435085
12.22; 1.0173074; 6.335456277619
13.23; 1.1246724; 7.4803242273924
14.25; 1.2351118; 8.7376147217844
15.27; 1.3505224; 10.112388251198
16.29; 1.4726892; 11.611522264869
17.31; 1.6025908; 13.242890567524
18.32; 1.7398546; 15.013987422551
19.34; 1.8825766; 16.930369184864
20.36; 2.0276139; 18.994392637118
21.38; 2.1712772; 21.204659169865
22.40; 2.3101944; 23.556337332602
23.41; 2.4420305; 26.042218956829
24.43; 2.5658049; 28.654097579242
25.45; 2.6817111; 31.383963714286
26.47; 2.7905695; 34.224643004467
27.48; 2.8932169; 37.169812931307
28.50; 2.9901773; 40.213684424816
29.52; 3.0818303; 43.350854720028
30.54; 3.1690389; 46.576799525077
31.56; 3.2539297; 49.889159579187
32.57; 3.3403645; 53.289506484217
33.59; 3.4336936; 56.784858391641
34.61; 3.5396581; 60.388077615532
35.63; 3.6626943; 64.116542337422
36.65; 3.8042423; 67.98909683422
37.66; 3.9617923; 72.022030466194
38.68; 4.129222; 76.225400293823
39.70; 4.2985263; 80.601114535732
40.72; 4.4624707; 85.143717108719
41.74; 4.6172485; 89.843876795814
42.75; 4.7640954; 94.693520327199
43.77; 4.9091093; 99.690781803417
44.79; 5.0611531; 104.84281730221
45.81; 5.2284622; 110.16516622985
46.83; 5.4151378; 115.67754285256
47.84; 5.6188402; 121.39727969447
48.86; 5.8306231; 127.33260237919
49.88; 6.0370896; 133.47809906521
50.90; 6.2241867; 139.81405253301
51.92; 6.381328; 146.30996911936
52.93; 6.5043973; 152.93116489509
53.95; 6.5965999; 159.6462189163
54.97; 6.6669415; 166.43287767314
55.99; 6.7269971; 173.28067043001
57.01; 6.7872432; 180.18979107501
58.02; 6.8543216; 187.16719464169
59.04; 6.9301555; 194.22179388505
60.06; 7.0130425; 201.36076855039
61.08; 7.1000394; 208.58830223115
62.10; 7.1894612; 215.90686345296
63.11; 7.2823402; 223.31997149717
64.13; 7.3821998; 230.83473235972
65.15; 7.4932749; 238.46256282415
66.17; 7.6180096; 246.21736790491
67.19; 7.7549998; 254.11162307875
68.20; 7.8983695; 262.15182244962
69.22; 8.0389742; 270.33515129071
70.24; 8.1670456; 278.64885129378
71.26; 8.2752758; 287.07272499461
72.27; 8.3611254; 295.58398988973
73.29; 8.4274275; 304.16274742262
74.31; 8.4810228; 312.79606263135
75.33; 8.5299365; 321.47916987531
76.35; 8.5801868; 330.21342975641
77.36; 8.6334761; 339.00193583396
78.38; 8.6867016; 347.84462317072
79.40; 8.7335568; 356.73500715057
80.42; 8.7677297; 365.66017763234
81.44; 8.7866108; 374.60456823471
82.45; 8.794211; 383.55669550473
83.47; 8.8022066; 392.5169620276
84.49; 8.8286003; 401.50409618854
85.51; 8.8942099; 410.55801802507
86.53; 9.017854; 419.73780430409
87.54; 9.2115015; 429.11471538633
88.56; 9.4766921; 438.76157900471
89.58; 9.8032277; 448.74084173318
90.60; 10.170557; 459.09402971924
91.62; 10.551586; 469.83508860117
92.63; 10.918012; 480.94915346037
93.65; 11.245856; 492.39694928848
94.67; 11.519768; 504.12357582817
95.69; 11.734973; 516.06927173202
96.71; 11.89633; 528.17922280153
97.72; 12.014806; 540.40977698735
98.74; 12.102434; 552.72953298548
99.76; 12.167387; 565.11540790604
100.78; 12.210813; 577.54548815511
101.80; 12.226635; 589.99167510241
102.81; 12.204571; 602.41540173765
103.83; 12.13552; 614.76883744647
104.85; 12.017569; 627.00220419855
105.87; 11.860454; 639.07563486757
106.89; 11.686652; 650.97214213941
107.90; 11.52826; 662.70741311313
108.92; 11.420195; 674.33267881988
109.94; 11.391513; 685.92874749812
110.96; 11.457405; 697.59189101608
111.98; 11.614349; 709.41479739056
112.99; 11.839998; 721.46740436209
114.01; 12.097915; 733.78255966177
115.03; 12.345809; 746.35006024981
116.05; 12.544847; 759.12017365742
117.07; 12.667421; 772.01506182728
118.08; 12.701353; 784.94449126513
119.10; 12.649804; 797.82144617702
120.12; 12.527516; 810.5739173791
121.14; 12.355094; 823.1508698388
122.15; 12.153391; 835.52249699885
123.17; 11.939683; 847.6765787181
124.19; 11.726369; 859.6135159923
125.21; 11.521859; 871.3422712616
126.23; 11.332515; 882.87828244581
127.24; 11.16426; 894.24301741721
128.26; 11.022862; 905.4638153781
129.28; 10.91267; 916.57244288706
130.30; 10.834443; 927.60143808601
131.32; 10.783449; 938.57852399947
132.33; 10.749062; 949.52060534228
133.35; 10.716533; 960.42957370864
134.37; 10.670798; 971.2919860696
135.39; 10.601288; 982.08363984174
136.41; 10.506177; 992.77847455455
137.42; 10.39451; 1003.3596371938
138.44; 10.285204; 1013.8295311576
139.46; 10.20288; 1024.2156222522
140.48; 10.171503; 1034.5697734646
141.50; 10.207578; 1044.9606475684
142.51; 10.314846; 1055.460716192
143.53; 10.482083; 1066.1310241207
144.55; 10.684688; 1077.0075755503
145.57; 10.889695; 1088.0928148754
146.59; 11.062833; 1099.3543010989
147.60; 11.175777; 1110.7307595124
148.62; 11.211743; 1122.1438295794
149.64; 11.168187; 1133.5125618242
150.66; 11.056274; 1144.7673714339
151.68; 10.897673; 1155.8607320323
152.69; 10.719861; 1166.7730882125
153.71; 10.551252; 1177.5138076944
154.73; 10.417162; 1188.118028911
155.75; 10.337072; 1198.6407219742
156.77; 10.323087; 1209.149179168
157.78; 10.379177; 1219.7147339505
158.80; 10.50083; 1230.4041259479
159.82; 10.675043; 1241.2708590546
160.84; 10.880956; 1252.3472028192
161.86; 11.091607; 1263.6379798102
162.87; 11.27714; 1275.1176221126
163.89; 11.409343; 1286.7318409036
164.91; 11.466748; 1298.4044953995
165.93; 11.43911; 1310.0490158549
166.94; 11.329957; 1321.5824227531
167.96; 11.156323; 1332.9390784122
168.98; 10.945557; 1344.0811832633
170.00; 10.729925; 1355.003783642
171.02; 10.540403; 1365.733459177
172.03; 10.401204; 1376.3214364698
173.05; 10.326253; 1386.8331163008
174.07; 10.31815; 1397.3365476729
175.09; 10.369414; 1407.8921640645
176.11; 10.465243; 1418.5453294039
177.12; 10.58686; 1429.322296338
178.14; 10.714709; 1440.2294081179
179.16; 10.831059; 1451.2549589256
180.18; 10.921948; 1462.3730307758
181.20; 10.978496; 1473.5486662075
182.21; 10.997576; 1484.7437243512
183.23; 10.981712; 1495.9226332195
184.25; 10.938043; 1507.0570892674
185.27; 10.876373; 1518.1287673474
186.29; 10.80664; 1529.1294605217
187.30; 10.736522; 1540.0587766908
188.32; 10.669993; 1550.9203694047
189.34; 10.607471; 1561.7183175621
190.36; 10.547632; 1572.4553517784
191.38; 10.490283; 1583.1340073247
192.39; 10.439156; 1593.7606175519
193.41; 10.403341; 1604.3507692897
194.43; 10.396493; 1614.9339509347
195.45; 10.433736; 1625.5550437628
196.47; 10.527065; 1636.2711413363
197.48; 10.680737; 1647.143670322
198.50; 10.888213; 1658.2274012192
199.52; 11.131803; 1669.559096487
200.54; 11.385299; 1681.1488394923
201.56; 11.618961; 1692.9764403071
202.57; 11.805548; 1704.9939787659
203.59; 11.925855; 1717.1339849862
204.61; 11.972476; 1729.3214491478
205.63; 11.95106; 1741.4871123139
206.65; 11.878976; 1753.5793976711
207.66; 11.781813; 1765.5727749225
208.68; 11.688436; 1777.4710985069
209.70; 11.625483; 1789.305338501
210.72; 11.612175; 1801.1260314519
211.74; 11.656335; 1812.9916777339
212.75; 11.752434; 1824.9551481678
213.77; 11.882283; 1837.0507994116
214.79; 12.018599; 1849.2852148876
215.81; 12.131014; 1861.6340632229
216.82; 12.193388; 1874.0464060807
217.84; 12.190727; 1886.4560400804
218.86; 12.12379; 1898.7975352933
219.88; 12.009916; 1911.0231116877
220.90; 11.879489; 1923.1159192155
221.91; 11.768706; 1935.0959539082
222.93; 11.710422; 1947.0166586187
223.95; 11.725526; 1958.9527383374
224.97; 11.817199; 1970.9821372488
225.99; 11.969673; 1983.1667475337
227.00; 12.151807; 1995.5367629273
228.02; 12.324497; 2008.0825695106
229.04; 12.449884; 2020.7560138216
230.06; 12.499952; 2033.4804258291
231.08; 12.462393; 2046.1666038267
232.09; 12.342423; 2058.7306581298
233.11; 12.160424; 2071.1094451108
234.13; 11.946292; 2083.2702549316
235.15; 11.732187; 2095.213115301
236.17; 11.545605; 2106.9660433575
237.18; 11.404464; 2118.5752958104
238.20; 11.315231; 2130.0937130566
239.22; 11.274237; 2141.5704000494
240.24; 11.27145; 2153.0442494011
241.26; 11.295359; 2164.5424374649
242.27; 11.337408; 2176.0834292231
243.29; 11.394648; 2187.6826896627
244.31; 11.469962; 2199.3586164799
245.33; 11.569996; 2211.1363735264
246.35; 11.70173; 2223.0482294215
247.36; 11.868985; 2235.1303438177
248.38; 12.070118; 2247.4172033024
249.40; 12.297605; 2259.9356340237
250.42; 12.539463; 2272.7002660488
251.44; 12.781779; 2285.7115654041
252.45; 13.011235; 2298.956441093
253.47; 13.2167; 2312.4104717454
254.49; 13.389495; 2326.0404001786
255.51; 13.522648; 2339.8058724389
256.53; 13.610007; 2353.6602727718
257.54; 13.646173; 2367.5514879624
258.56; 13.627818; 2381.4240182985
259.58; 13.556251; 2395.2236971702
260.60; 13.440328; 2408.9053716028
261.61; 13.298391; 2422.4425592986
262.63; 13.158033; 2435.8368692079
263.65; 13.053106; 2449.1243681755
264.67; 13.018242; 2462.3763764325
265.69; 13.082027; 2475.6933158691
266.70; 13.26042; 2489.1918510994
267.72; 13.551951; 2502.9871519897
268.74; 13.935839; 2517.1732349464
269.76; 14.373457; 2531.8047943208
270.78; 14.812958; 2546.8837459822
271.79; 15.196432; 2562.3530583623
272.81; 15.468709; 2578.0995364775
273.83; 15.586718; 2593.9661430663
274.85; 15.528187; 2609.7731669204
275.87; 15.298173; 2625.3460467124
276.88; 14.931851; 2640.5460270632
277.90; 14.492131; 2655.2983914239
278.92; 14.061422; 2669.6123117487
279.94; 13.728098; 2683.5869232695
280.96; 13.569774; 2697.4003673354
281.97; 13.636812; 2711.2820530485
282.99; 13.940142; 2725.4725163695
284.01; 14.446911; 2740.1788487035
285.03; 15.085788; 2755.535529727
286.05; 15.761281; 2771.5798335332
287.06; 16.373871; 2788.2477279367
288.08; 16.841002; 2805.3911412668
289.10; 17.113605; 2822.812052176
290.12; 17.184048; 2840.3046711846
291.14; 17.083833; 2857.6952754769
292.15; 16.872247; 2874.8704945683
293.17; 16.61962; 2891.7885507018
294.19; 16.390037; 2908.472900883
295.21; 16.228046; 2924.9923512078
296.23; 16.152277; 2941.4346723545
297.24; 16.156541; 2957.8813337816
298.26; 16.216778; 2974.3893136383
299.28; 16.300833; 2990.9828586528
300.30; 16.377792; 3007.6547439247
301.32; 16.424433; 3024.3741083841
302.33; 16.427856; 3041.0969564741
303.35; 16.384769; 3057.7759440384
304.37; 16.298971; 3074.3675928471
305.39; 16.178704; 3090.8368157477
306.41; 16.035096; 3107.1598514954
307.42; 15.881956; 3123.3269977456
308.44; 15.73635; 3139.3459229734
309.46; 15.618847; 3155.2452351667
310.48; 15.552452; 3171.0769600052
311.49; 15.559769; 3186.9161335107
312.51; 15.658762; 3202.8560779604
313.53; 15.85816; 3218.9990005202
314.55; 16.153876; 3235.4429490332
315.57; 16.527645; 3252.267378195
316.58; 16.948475; 3269.5201948428
317.60; 17.376734; 3287.2089602637
318.62; 17.769958; 3305.2980104512
319.64; 18.089096; 3323.7119292822
320.66; 18.303892; 3342.3445011739
321.67; 18.396512; 3361.0713569083
322.69; 18.363108; 3379.7642081232
323.71; 18.21354; 3398.3048061722
324.73; 17.969835; 3416.5973229952
325.75; 17.663899; 3434.5784103361
326.76; 17.334793; 3452.2244816688
327.78; 17.025485; 3469.5556910791
328.80; 16.77881; 3486.6357955642
329.82; 16.632436; 3503.5668974836
330.84; 16.613106; 3520.4783224238
331.85; 16.731041; 3537.5098002375
332.87; 16.975966; 3554.7906013094
333.89; 17.316379; 3572.4179279236
334.91; 17.703219; 3590.4390411782
335.93; 18.078025; 3608.8416903129
336.94; 18.384241; 3627.5560545612
337.96; 18.579072; 3646.4687481401
338.98; 18.642642; 3665.4461531434
340.00; 18.581656; 3684.3614769643
341.02; 18.42619; 3703.1185428175
342.03; 18.220358; 3721.6660806565
343.05; 18.009668; 3739.999145759
344.07; 17.82912; 3758.1484208487
345.09; 17.69598; 3776.1621653326
346.11; 17.609616; 3794.0879942057
347.12; 17.558229; 3811.9615140331
348.14; 17.529742; 3829.8060350782
349.16; 17.522365; 3847.6430469175
350.18; 17.550344; 3865.5085400183
351.20; 17.642019; 3883.4673545134
352.21; 17.830231; 3901.6177600463
353.23; 18.138114; 3920.0815770535
354.25; 18.565374; 3938.9803263729
355.27; 19.080345; 3958.4032939796
356.28; 19.621388; 3978.3770199965
357.30; 20.108072; 3998.8461691711
358.32; 20.45921; 4019.6727624917
359.34; 20.61245; 4040.6553476109
360.36; 20.539566; 4061.56373898
361.37; 20.253095; 4082.1805161952
362.39; 19.80287; 4102.3389838185
363.41; 19.264194; 4121.9491021975
364.43; 18.721845; 4141.0071330085
365.45; 18.254796; 4159.5897273297
366.46; 17.925494; 4177.8371066713
367.48; 17.775309; 4195.931604664
368.50; 17.825226; 4214.0769151603
369.52; 18.079167; 4232.4807269025
370.54; 18.527033; 4251.3404468844
371.55; 19.145617; 4270.8298585591
372.57; 19.897503; 4291.0846578013
373.59; 20.729848; 4312.1867488451
374.61; 21.575793; 4334.1499755525
375.63; 22.360669; 4356.9121712474
376.64; 23.013342; 4380.3387600154
377.66; 23.480684; 4404.2410826546
378.68; 23.741195; 4428.4085950029
379.70; 23.813208; 4452.6494132867
380.72; 23.754119; 4476.8300809346
381.73; 23.649625; 4500.9043788234
382.75; 23.595074; 4524.9231458214
383.77; 23.673702; 4549.021953354
384.79; 23.937821; 4573.3896223691
385.81; 24.398272; 4598.2260099535
386.82; 25.025052; 4623.7004331035
387.84; 25.758591; 4649.9215667968
388.86; 26.52793; 4676.9258544272
389.88; 27.270167; 4704.6857076325
390.90; 27.945471; 4733.132991535
391.91; 28.543821; 4762.1893697777
392.93; 29.082572; 4791.7941733191
393.95; 29.596959; 4821.9225999688
394.97; 30.127625; 4852.5912216663
395.99; 30.709647; 4883.8523168772
397.00; 31.366267; 4915.7818236093
398.02; 32.108334; 4948.4667224859
399.04; 32.938172; 4981.9963604947
400.06; 33.855154; 5016.4594462812
401.07; 34.860063; 5051.9454864146
402.09; 35.956347; 5088.5474958115
403.11; 37.147997; 5126.3625535806
404.13; 38.435359; 5165.4880902903
405.15; 39.811004; 5206.013974116
406.16; 41.257718; 5248.0125504271
407.18; 42.749773; 5291.5299745549
408.20; 44.257382; 5336.5820795267
409.22; 45.753079; 5383.156739376
410.24; 47.218046; 5431.2226729175
411.25; 48.646266; 5480.7424720929
412.27; 50.044778; 5531.68589678
413.29; 51.429215; 5584.0386186158
414.31; 52.814961; 5637.8019701022
415.33; 54.205725; 5692.9810594352
416.34; 55.582624; 5749.5617726063
417.36; 56.897717; 5807.4811928855
418.38; 58.075741; 5866.5997908434
419.40; 59.026242; 5926.6859576141
420.42; 59.665339; 5987.4226982767
421.43; 59.94279; 6048.441871801
422.45; 59.866901; 6109.3837933045
423.47; 59.518685; 6169.9712460283
424.49; 59.048342; 6230.0799096816
425.51; 58.651711; 6289.7848204002
426.52; 58.530596; 6349.3664412746
427.54; 58.846668; 6409.2698096167
428.56; 59.681807; 6470.0233137771
429.58; 61.01674; 6532.1357218166
430.60; 62.734712; 6595.9969514599
431.61; 64.649384; 6661.8072341752
432.63; 66.548794; 6729.5510342873
433.65; 68.242845; 6799.0193057126
434.67; 69.601791; 6869.8709259501
435.69; 70.577407; 6941.7156811602
436.70; 71.204952; 7014.1992496987
437.72; 71.589942; 7087.0747218396
438.74; 71.886862; 7160.2524452106
439.76; 72.276396; 7233.8266977265
440.78; 72.944573; 7308.0811253018
441.79; 74.063455; 7383.4745261099
442.81; 75.77109; 7460.6062262822
443.83; 78.149462; 7540.1590066312
444.85; 81.202663; 7622.8198130811
445.87; 84.841484; 7709.1847823017
446.88; 88.882538; 7799.6633702332
447.90; 93.068209; 7894.4027904976
448.92; 97.108241; 7993.2547891755
449.94; 100.73644; 8095.8001388601
450.95; 103.76972; 8201.4332358663
451.97; 106.15422; 8309.4936486559
452.99; 107.9857; 8419.4184362283
454.01; 109.4981; 8530.8827755479
455.03; 111.02233; 8643.8987182819
456.04; 112.9251; 8758.8515961892
457.06; 115.54101; 8876.4673601192
458.08; 119.11174; 8997.7179710509
459.10; 123.74278; 9123.682781924
460.12; 129.38421; 9255.3903229119
461.13; 135.83771; 9393.6672484837
462.15; 142.78897; 9539.0202550222
463.17; 149.86168; 9691.5729804812
464.19; 156.68635; 9851.0729259738
465.21; 162.97328; 10016.972694423
466.22; 168.57577; 10188.575557164
467.24; 173.52802; 10365.219597617
468.26; 178.04475; 10546.461473613
469.28; 182.47694; 10732.215128951
470.30; 187.22928; 10922.806454805
471.31; 192.65678; 11118.922742727
472.33; 198.96682; 11321.462378312
473.35; 206.15425; 11531.318504622
474.37; 213.99056; 11749.151655682
475.39; 222.07391; 11975.213313025
476.40; 229.92959; 12209.271710725
477.42; 237.13522; 12450.6651321
478.44; 243.43691; 12698.473406334
479.46; 248.82357; 12951.76506305
480.48; 253.53735; 13209.855149668
481.49; 258.0153; 13472.503587176
482.51; 262.77572; 13739.997935609
483.53; 268.27889; 14013.094269893
484.55; 274.79925; 14292.82805032
485.57; 282.34545; 14580.243535582
486.58; 290.65268; 14876.115417751
487.60; 299.25312; 15180.742176247
488.62; 307.60791; 15493.873756575
489.64; 315.26419; 15814.799096132
490.66; 321.9895; 16142.5705089
491.67; 327.83817; 16476.295621235
492.69; 333.12115; 16815.398575936
493.71; 338.27955; 17159.752562666
494.73; 343.69516; 17509.61940447
495.74; 349.49676; 17865.392022235
496.76; 355.43035; 18227.204779115
497.78; 360.84736; 18594.531818857
498.80; 364.83025; 18965.913271306
499.82; 366.42926; 19338.922444252
500.83; 364.94269; 19710.418354767
501.85; 360.15195; 20077.037499557
502.87; 352.43072; 20435.796761617
503.89; 342.68498; 20784.635279989
504.91; 332.13524; 21122.734626411
505.92; 322.00532; 21450.52215133
506.94; 313.21416; 21769.360654489
507.96; 306.16651; 22081.024947817
508.98; 300.704; 22387.128646109
510.00; 296.22356; 22688.671444305
511.01; 291.91425; 22985.82754955
512.03; 287.02802; 23278.009684152
513.05; 281.09526; 23564.152525241
514.07; 274.02361; 23843.096730888
515.09; 266.06505; 24113.93947298
516.10; 257.68337; 24376.250023979
517.12; 249.38358; 24630.111750806
518.14; 241.568; 24876.017552523
519.16; 234.46143; 25114.689172551
520.18; 228.1135; 25346.898874077
521.19; 222.4544; 25573.347854516
522.21; 217.36466; 25794.61570353
523.23; 212.72433; 26011.159894651
524.25; 208.42661; 26223.32919082
525.27; 204.36465; 26431.363588628
526.28; 200.41493; 26635.377344022
527.30; 196.44025; 26835.34503765
528.32; 192.32074; 27031.119248166
529.34; 188.0014; 27222.496555749
530.36; 183.52986; 27409.322038208
531.37; 179.05794; 27591.595297646
532.39; 174.79471; 27769.528764979
533.41; 170.9224; 27943.520393573
534.43; 167.50709; 28114.035382962
535.45; 164.44382; 28281.432098814
536.46; 161.46623; 28445.7977516
537.48; 158.2258; 28606.864787449
538.50; 154.417; 28764.054632742
539.52; 149.90299; 28916.649412672
540.54; 144.79274; 29064.042176823
541.55; 139.43604; 29205.982049441
542.57; 134.33246; 29342.726701182
543.59; 129.98224; 29475.04301293
544.61; 126.72886; 29604.047525552
545.62; 124.64677; 29730.932563099
546.64; 123.51166; 29856.662105207
547.66; 122.8621; 29981.730420211
548.68; 122.13065; 30106.054150009
549.70; 120.80083; 30229.024182753
550.71; 118.54076; 30349.693562599
551.73; 115.27529; 30467.038830939
552.75; 111.18086; 30580.216153079
553.77; 106.61254; 30688.743117224
554.79; 101.99169; 30792.566254293
555.80; 97.691152; 30892.011631453
556.82; 93.950223; 30987.648904345
557.84; 90.838725; 31080.118806657
558.86; 88.272733; 31169.976640192
559.88; 86.0698; 31257.591982657
560.89; 84.022747; 31343.123513409
561.91; 81.969414; 31426.564839737
562.93; 79.840229; 31507.838747432
563.95; 77.673722; 31586.907244938
564.97; 75.599432; 31663.864204463
565.98; 73.79574; 31738.985083154
567.00; 72.435551; 31812.721348681
568.02; 71.634633; 31885.642314215
569.04; 71.415815; 31958.340532546
570.06; 71.697675; 32031.325671737
571.07; 72.309817; 32104.933945339
572.09; 73.029961; 32179.275294122
573.11; 73.632469; 32254.229970117
574.13; 73.935252; 32329.49286597
575.15; 73.832942; 32404.65161443
576.16; 73.308664; 32479.276671024
577.18; 72.423289; 32553.000453824
578.20; 71.287663; 32625.568218155
579.22; 70.027907; 32696.853606019
580.24; 68.754955; 32766.843183042
581.25; 67.546863; 32835.602974498
582.27; 66.447168; 32903.243324634
583.29; 65.476535; 32969.895611924
584.31; 64.650394; 33035.70692315
