#Wavenumber (cm^-1); Spectrum (K*cm*km*mol^-1); Integral (K*km*mol^-1)
0.00; 5.3812144; 5.4778440864098
1.02; 5.7357378; 11.316577667192
2.04; 6.7656502; 18.203717578263
3.05; 8.3791518; 26.733332485395
4.07; 10.450849; 37.371846089405
5.09; 12.853871; 50.456531623017
6.11; 15.489757; 66.224435668263
7.13; 18.307782; 84.8609680455
8.14; 21.309393; 106.55301020072
9.16; 24.538358; 131.53200023578
10.18; 28.061126; 160.09701591472
11.20; 31.943539; 192.61416029021
12.22; 36.229521; 229.49424910838
13.23; 40.925376; 271.15451621611
14.25; 45.991334; 317.97170911707
15.27; 51.340782; 370.23441006104
16.29; 56.847466; 428.1026776608
17.31; 62.360977; 491.58346171334
18.32; 67.730322; 560.53000670972
19.34; 72.833464; 634.67133023124
20.36; 77.607912; 713.67283551013
21.38; 82.074753; 797.221392889
22.40; 86.347682; 885.119607073
23.41; 90.620603; 977.36747009038
24.43; 95.132493; 1074.2082432693
25.45; 100.11498; 1176.1209773223
26.47; 105.73442; 1283.7540524359
27.48; 112.04358; 1397.8095859018
28.50; 118.95736; 1518.9030409851
29.52; 126.26104; 1647.4313352762
30.54; 133.65183; 1783.4831304395
31.56; 140.8047; 1926.8162431321
32.57; 147.44745; 2076.9113863975
33.59; 153.42643; 2233.0928700731
34.61; 158.74691; 2394.6903727003
35.63; 163.57808; 2561.2057986974
36.65; 168.22172; 2732.4482467485
37.66; 173.05289; 2908.6086171679
38.68; 178.4483; 3090.2612857303
39.70; 184.72107; 3278.2993610749
40.72; 192.07839; 3473.8268744194
41.74; 200.61129; 3678.0405100339
42.75; 210.31458; 3892.1316789172
43.77; 221.12437; 4117.2267460476
44.79; 232.95321; 4354.3630577393
45.81; 245.70346; 4604.4785723996
46.83; 259.2482; 4868.3820565617
47.84; 273.38424; 5146.6754196165
48.86; 287.77773; 5439.6207345813
49.88; 301.93307; 5746.975566831
50.90; 315.21343; 6067.8492319806
51.92; 326.9259; 6400.6456918343
52.93; 336.45897; 6743.1464081337
53.95; 343.43507; 7092.7484894248
54.97; 347.82669; 7446.8210550841
55.99; 349.9896; 7803.0953692807
57.01; 350.59156; 8159.982450705
58.02; 350.45266; 8516.7281318663
59.04; 350.34865; 8873.367939434
60.06; 350.84703; 9230.5150736442
61.08; 352.2366; 9589.0767281982
62.10; 354.5768; 9950.0206106347
63.11; 357.84468; 10314.29104975
64.13; 362.11508; 10682.908570431
65.15; 367.69202; 11057.203178857
66.17; 375.12497; 11439.064206022
67.19; 385.08882; 11831.068002918
68.20; 398.16304; 12236.380797498
69.22; 414.58996; 12658.415482578
70.24; 434.10556; 13100.316209026
71.26; 455.91201; 13564.414956819
72.27; 478.80816; 14051.821006517
73.29; 501.43569; 14562.26090233
74.31; 522.55727; 15094.201650926
75.33; 541.27768; 15645.198969728
76.35; 557.1483; 16212.351898947
77.36; 570.1465; 16792.73643225
78.38; 580.56957; 17383.731200364
79.40; 588.9068; 17983.212914828
80.42; 595.74358; 18589.65417273
81.44; 601.71582; 19202.174915486
82.45; 607.49213; 19820.575688846
83.47; 613.73731; 20445.333784159
84.49; 621.01928; 21077.504608069
85.51; 629.65857; 21718.469864685
86.53; 639.56741; 22369.52189
87.54; 650.15694; 23031.353599006
88.56; 660.38669; 23703.598748504
89.58; 668.98457; 24384.596169604
90.60; 674.79594; 25071.509314411
91.62; 677.15589; 25760.824793695
92.63; 676.15173; 26449.118076217
93.65; 672.66891; 27133.866001617
94.67; 668.18817; 27814.052720907
95.69; 664.39463; 28490.3777887
96.71; 662.734; 29165.012402263
97.72; 664.07201; 29841.009054843
98.74; 668.57203; 30521.586532902
99.76; 675.81593; 31209.537987044
100.78; 685.09435; 31906.93446823
101.80; 695.72554; 32615.15304289
102.81; 707.25731; 33335.110467429
103.83; 719.46641; 34067.496227341
104.85; 732.16841; 34812.812074476
105.87; 744.94534; 35571.134287601
106.89; 756.94522; 36341.671859038
107.90; 766.88513; 37122.327825274
108.92; 773.30489; 37909.518834673
109.94; 775.00664; 38698.442154512
110.96; 771.52424; 39483.820542936
111.98; 763.43597; 40260.965414137
112.99; 752.37895; 41026.854720382
114.01; 740.72879; 41780.884666707
115.03; 731.03097; 42525.042647753
116.05; 725.36386; 43263.431754314
117.07; 724.83911; 44001.286694809
118.08; 729.39483; 44743.779154629
119.10; 737.93074; 45494.960800399
120.12; 748.71504; 46257.120403006
121.14; 759.90463; 47030.670527315
122.15; 769.99608; 47814.493310034
123.17; 778.06866; 48606.533634996
124.19; 783.77159; 49404.379289277
125.21; 787.10734; 50205.620597739
126.23; 788.13361; 51007.906599763
127.24; 786.72299; 51808.756654238
128.26; 782.48202; 52605.289586857
129.28; 774.85767; 53394.06125619
130.30; 763.38229; 54171.15148386
131.32; 747.956; 54932.538412871
132.33; 729.05538; 55674.685329778
133.35; 707.78883; 56395.183817789
134.37; 685.7755; 57093.273687122
135.39; 664.88404; 57770.09694687
136.41; 646.90821; 58428.621593892
137.42; 633.26814; 59073.26123363
138.44; 624.80838; 59709.289207229
139.46; 621.7285; 60342.18198747
140.48; 623.64106; 60977.021678372
141.50; 629.72062; 61618.050097964
142.51; 638.89083; 62268.413398604
143.53; 649.99869; 62930.084020383
144.55; 661.93936; 63603.909721082
145.57; 673.7172; 64289.72476087
146.59; 684.45109; 64986.466437016
147.60; 693.3488; 65692.265600011
148.62; 699.68327; 66404.512971322
149.64; 702.79954; 67119.932578553
150.66; 702.16752; 67834.70881498
151.68; 697.47454; 68544.707802491
152.69; 688.73153; 69245.806781627
153.71; 676.35289; 69934.304841638
154.73; 661.17103; 70607.348423802
155.75; 644.36249; 71263.281630729
156.77; 627.29046; 71901.836248832
157.78; 611.2984; 72524.111641261
158.80; 597.50934; 73132.350369059
159.82; 586.68673; 73729.572146783
160.84; 579.19213; 74319.16474541
161.86; 575.03998; 74904.530634602
162.87; 574.01326; 75488.851361381
163.89; 575.78195; 76074.972535964
164.91; 579.9693; 76665.356260294
165.93; 586.13925; 77262.020725511
166.94; 593.72108; 77866.403168197
167.96; 601.92628; 78479.138146229
168.98; 609.72807; 79099.815007435
170.00; 615.95725; 79726.832904396
171.02; 619.52123; 80357.478782022
172.03; 619.69437; 80988.300906546
173.05; 616.3811; 81615.750264701
174.07; 610.24142; 82236.949697974
175.09; 602.60083; 82850.371337625
176.11; 595.13639; 83456.194501876
177.12; 589.41389; 84056.192404751
178.14; 586.41589; 84653.138480229
179.16; 586.22059; 85249.885747926
180.18; 587.95364; 85848.39718718
181.20; 590.05002; 86449.042642861
182.21; 590.75731; 87050.408088728
183.23; 588.72422; 87649.703940972
184.25; 583.48055; 88243.661957685
185.27; 575.64403; 88829.642735399
186.29; 566.7774; 89406.597672231
187.30; 558.93586; 89975.570256972
188.32; 554.05046; 90539.569715699
189.34; 553.34901; 91102.855134333
190.36; 557.00203; 91669.859164558
191.38; 564.10242; 92244.091090274
192.39; 572.97221; 92827.352072116
193.41; 581.67886; 93419.476053218
194.43; 588.57875; 94018.623824443
195.45; 592.70708; 94621.974052673
196.47; 593.90117; 95226.539813861
197.48; 592.64887; 95829.830790094
198.50; 589.75544; 96430.176381986
199.52; 585.98171; 97026.680474007
200.54; 581.80167; 97618.929465315
201.56; 577.36376; 98206.660861186
202.57; 572.6447; 98789.588454595
203.59; 567.69896; 99367.481502134
204.61; 562.86684; 99940.455658092
205.63; 558.82555; 100509.31595722
206.65; 556.44191; 101075.74981141
207.66; 556.47838; 101642.22079303
208.68; 559.27647; 102211.54010959
209.70; 564.55985; 102786.23767166
210.72; 571.45555; 103367.95476219
211.74; 578.74295; 103957.09010783
212.75; 585.24423; 104552.84347756
213.77; 590.20863; 105153.6503903
214.79; 593.54131; 105757.84982891
215.81; 595.78816; 106364.33646454
216.82; 597.88372; 106972.95628811
217.84; 600.76105; 107584.5051141
218.86; 604.97185; 108200.3403553
219.88; 610.45399; 108821.75617375
220.90; 616.52026; 109449.34718971
221.91; 622.05604; 110082.57339646
222.93; 625.84227; 110719.65382266
223.95; 626.8911; 111357.80191394
224.97; 624.70104; 111993.72061436
225.99; 619.38858; 112624.23145716
227.00; 611.70528; 113246.92104014
228.02; 602.97589; 113860.72447351
229.04; 594.98504; 114466.39357435
230.06; 589.81039; 115066.79509572
231.08; 589.57379; 115666.95576769
232.09; 596.08769; 116273.74731191
233.11; 610.41739; 116895.12587288
234.13; 632.44787; 117538.93051279
235.15; 660.60003; 118211.39284179
236.17; 691.84793; 118915.66418075
237.18; 722.12548; 119650.75675519
238.20; 747.08928; 120411.26140155
239.22; 763.06567; 121188.02932954
240.24; 767.91313; 121969.73175409
241.26; 761.52363; 122744.92994647
242.27; 745.78432; 123504.10620013
243.29; 723.99446; 124241.10131855
244.31; 699.92035; 124953.59003422
245.33; 676.7978; 125642.54098846
246.35; 656.60611; 126310.93766986
247.36; 639.83066; 126962.25766907
248.38; 625.74429; 127599.23835313
249.40; 613.04543; 128223.29214539
250.42; 600.57049; 128834.64699295
251.44; 587.79603; 129432.99799188
252.45; 574.95945; 130018.28190102
253.47; 562.80406; 130591.19215075
254.49; 552.11729; 131153.2237301
255.51; 543.31002; 131706.28988146
256.53; 536.24921; 132252.16844095
257.54; 530.42417; 132792.11735603
258.56; 525.3601; 133326.91126529
259.58; 521.06795; 133857.33595186
260.60; 518.29162; 134384.93445273
261.61; 518.39686; 134912.64008381
262.63; 522.90352; 135444.93330549
263.65; 532.82575; 135987.32692208
264.67; 548.08217; 136545.25092332
265.69; 567.22762; 137122.66416365
266.70; 587.64204; 137720.85839847
267.72; 606.13979; 138337.88254931
268.74; 619.80242; 138968.81466972
269.76; 626.75451; 139606.82371137
270.78; 626.62586; 140244.70179238
271.79; 620.56064; 140876.40574436
272.81; 610.79577; 141498.16948263
273.83; 599.97369; 142108.91681084
274.85; 590.42705; 142709.94606601
275.87; 583.65517; 143304.08184768
276.88; 580.1211; 143894.62008951
277.90; 579.37536; 144484.39920635
278.92; 580.40811; 145075.22961681
279.94; 582.07765; 145667.75954766
280.96; 583.4722; 146261.7090666
281.97; 584.11533; 146856.31326255
282.99; 583.99565; 147450.79563537
284.01; 583.45814; 148044.7308398
285.03; 583.02201; 148638.22209003
286.05; 583.18876; 149231.88308485
287.06; 584.285; 149826.66000486
288.08; 586.36469; 150423.55395266
289.10; 589.18162; 151023.31541898
290.12; 592.2368; 151626.18692736
291.14; 594.89841; 152231.76783555
292.15; 596.57881; 152839.0593157
293.17; 596.93211; 153446.71044487
294.19; 596.0161; 154053.42911545
295.21; 594.35643; 154658.45831646
296.23; 592.86932; 155261.97369924
297.24; 592.64097; 155865.25663548
298.26; 594.61555; 156470.54960726
299.28; 599.28643; 157080.59733349
300.30; 606.49788; 157697.98600229
301.32; 615.43553; 158324.47281064
302.33; 624.82182; 158960.51446078
303.35; 633.2593; 159605.14510616
304.37; 639.60945; 160256.23992921
305.39; 643.28081; 160911.07203359
306.41; 644.33405; 161566.97629315
307.42; 643.37988; 162221.90925283
308.44; 641.32048; 162874.74582637
309.46; 639.03643; 163525.25733468
310.48; 637.12945; 164173.82762333
311.49; 635.7961; 164821.04061805
312.51; 634.84806; 165467.2885503
313.53; 633.83836; 166112.50865037
314.55; 632.22426; 166756.08566238
315.57; 629.50634; 167396.89595189
316.58; 625.31967; 168033.44439602
317.60; 619.49368; 168664.06223275
318.62; 612.1181; 169287.1720481
319.64; 603.63956; 169901.65107012
320.66; 594.97273; 170507.30763369
321.67; 587.56432; 171105.42275664
322.69; 583.32567; 171699.22311783
323.71; 584.37122; 172294.08779936
324.73; 592.56516; 172897.29355812
325.75; 608.96524; 173517.19389472
326.76; 633.3237; 174161.89009506
327.78; 663.82575; 174837.63606082
328.80; 697.19819; 175547.35373674
329.82; 729.21506; 176289.66320251
330.84; 755.49854; 177058.72811343
331.85; 772.41048; 177845.00865188
332.87; 777.79171; 178636.76704866
333.89; 771.35004; 179421.96810584
334.91; 754.60821; 180190.12670339
335.93; 730.45894; 180933.70238519
336.94; 702.48672; 181648.80355076
337.96; 674.26546; 182335.17668948
338.98; 648.81512; 182995.64247983
340.00; 628.31571; 183635.24075903
341.02; 614.07224; 184260.33979724
342.03; 606.64187; 184877.87504494
343.05; 606.00449; 185494.76146253
344.07; 611.68393; 186117.42930415
345.09; 622.79043; 186751.40309091
346.11; 638.02029; 187400.8802173
347.12; 655.68527; 188068.33953153
348.14; 673.8362; 188754.27570572
349.16; 690.49837; 189457.17325235
350.18; 703.97596; 190173.79040235
351.20; 713.13798; 190899.73409703
352.21; 717.59174; 191630.21152082
353.23; 717.68431; 192360.78318335
354.25; 714.33389; 193087.94426104
355.27; 708.75301; 193809.42424526
356.28; 702.16035; 194524.19318335
357.30; 695.57205; 195232.25551448
358.32; 689.72282; 195934.36357958
359.34; 685.10975; 196631.7757421
360.36; 682.10336; 197326.12753099
361.37; 681.05004; 198019.40708616
362.39; 682.30434; 198713.96346488
363.41; 686.16903; 199412.45392657
364.43; 692.76683; 200117.66066514
365.45; 701.90016; 200832.16474238
366.46; 712.96151; 201557.92879835
367.48; 724.93761; 202295.88400293
368.50; 736.51575; 203045.62524963
369.52; 746.26662; 203805.29246114
370.54; 752.8578; 204571.66921677
371.55; 755.25095; 205340.48209573
372.57; 752.84949; 206106.85039149
373.59; 745.58264; 206865.82134317
374.61; 733.92544; 207612.92577495
375.63; 718.85895; 208344.69316908
376.64; 701.77148; 209059.06625691
377.66; 684.29927; 209755.65338509
378.68; 668.10983; 210435.76035806
379.70; 654.64762; 211102.16339034
380.72; 644.88436; 211758.62783599
381.73; 639.13442; 212409.23909523
382.75; 636.99801; 213057.67558526
383.77; 637.47171; 213706.59427353
384.79; 639.22175; 214357.29442738
385.81; 640.96107; 215009.76513928
386.82; 641.82647; 215663.11679093
387.84; 641.63672; 216316.27528409
388.86; 640.93649; 216968.72096932
389.88; 640.79165; 217621.01921444
390.90; 642.38215; 218274.93651855
391.91; 646.51228; 218933.0581221
392.93; 653.19847; 219597.9859754
393.95; 661.48361; 220271.34774488
394.97; 669.56439; 220952.93540507
395.99; 675.22044; 221640.28067734
397.00; 676.43294; 222328.86022116
398.02; 672.00961; 223012.93700604
399.04; 662.0183; 223686.84306994
400.06; 647.88157; 224346.35854689
401.07; 632.08549; 224989.7943024
402.09; 617.57646; 225618.46048708
403.11; 607.01971; 226236.38035759
404.13; 602.13986; 226849.33275399
405.15; 603.33896; 227463.50578094
406.16; 609.69993; 228084.15399883
407.18; 619.36105; 228714.63681623
408.20; 630.13157; 229356.08356471
409.22; 640.1485; 230007.72711082
410.24; 648.37224; 230667.74207636
411.25; 654.7837; 231334.28363172
412.27; 660.25136; 232006.39102653
413.29; 666.14673; 232684.49964935
414.31; 673.86046; 233370.46051428
415.33; 684.38652; 234067.13646197
416.34; 698.09686; 234777.76894315
417.36; 714.74528; 235505.3487995
418.38; 733.6521; 236252.17497802
419.40; 753.96313; 237019.67691027
420.42; 774.86843; 237808.45953393
421.43; 795.70522; 238618.45311213
422.45; 815.93546; 239449.0402046
423.47; 835.05022; 240299.08529329
424.49; 852.48407; 241166.87728937
425.51; 867.61122; 242050.06807374
426.52; 879.84841; 242945.71578367
427.54; 888.83117; 243850.50756208
428.56; 894.58728; 244761.15880537
429.58; 897.62329; 245674.90058098
430.60; 898.87177; 246589.9132548
431.61; 899.50201; 247505.56748908
432.63; 900.65292; 248422.39329908
433.65; 903.17724; 249341.78875503
434.67; 907.47995; 250265.5641821
435.69; 913.49397; 251195.46162615
436.70; 920.78234; 252132.77831192
437.72; 928.71197; 253078.16701943
438.74; 936.62896; 254031.61488579
439.76; 943.98285; 254992.54869563
440.78; 950.38645; 255960.00109012
441.79; 955.63679; 256932.79810475
442.81; 959.74036; 257909.7723791
443.83; 962.97204; 258890.03635985
444.85; 965.95847; 259873.34039518
445.87; 969.73336; 260860.48710922
446.88; 975.68943; 261853.69684631
447.90; 985.36767; 262856.75861669
448.92; 1000.0806; 263874.79749939
449.94; 1020.4438; 264913.56524489
450.95; 1045.959; 265978.30640985
451.97; 1074.8185; 267072.42530606
452.99; 1104.0658; 268196.31665628
454.01; 1130.1539; 269346.76459859
455.03; 1149.8145; 270517.22609645
456.04; 1161.0292; 271699.10367433
457.06; 1163.8284; 272883.83075292
458.08; 1160.651; 274065.32334637
459.10; 1156.0992; 275242.18246509
460.12; 1156.0846; 276419.02673981
461.13; 1166.5387; 277606.51274768
462.15; 1192.0065; 278819.92393004
463.17; 1234.5011; 280076.59275931
464.19; 1292.9453; 281392.75531438
465.21; 1363.3833; 282780.62065918
466.22; 1439.9296; 284246.4068187
467.24; 1516.216; 285789.84926913
468.26; 1586.9449; 287405.29064735
469.28; 1649.1216; 289084.02529787
470.30; 1702.6305; 290817.22963191
471.31; 1750.0114; 292598.6657517
472.33; 1795.5406; 294426.44860809
473.35; 1843.9254; 296303.48508397
474.37; 1899.038; 298236.62385385
475.39; 1963.0797; 300234.95425865
476.40; 2036.4032; 302307.92484352
477.42; 2117.9806; 304463.93770682
478.44; 2206.2655; 306709.82078107
479.46; 2300.0598; 309051.18237511
480.48; 2399.002; 311493.262913
481.49; 2503.454; 314041.67105931
482.51; 2613.8138; 316702.4207296
483.53; 2729.535; 319480.96961735
484.55; 2848.2795; 322380.39521396
485.57; 2965.6136; 325399.26189315
486.58; 3075.4742; 328529.96195353
487.60; 3171.3408; 331758.25003875
488.62; 3247.7703; 335064.34001091
489.64; 3301.7852; 338425.41489145
490.66; 3333.6267; 341818.90306586
491.67; 3346.588; 345225.58528783
492.69; 3345.9618; 348631.63005489
493.71; 3337.4425; 352029.00247615
494.73; 3325.5098; 355414.22795023
495.74; 3312.314; 358786.02065028
496.76; 3297.3864; 362142.61773358
497.78; 3278.1987; 365479.68250439
498.80; 3251.2975; 368789.36302341
499.82; 3213.5705; 372060.63914359
500.83; 3163.2028; 375280.6430462
501.85; 3100.0532; 378436.36347474
502.87; 3025.4375; 381516.12830095
503.89; 2941.5299; 384510.47881143
504.91; 2850.7146; 387412.38325677
505.92; 2755.1724; 390217.02988274
506.94; 2656.8274; 392921.56557865
507.96; 2557.5731; 395525.06460334
508.98; 2459.5497; 398028.78007553
510.00; 2365.2228; 400436.47480555
511.01; 2277.1173; 402754.48193644
512.03; 2197.2527; 404991.19032552
513.05; 2126.4986; 407155.87411091
514.07; 2064.1531; 409257.09287414
515.09; 2007.9869; 411301.13688584
516.10; 1954.8201; 413291.05936361
517.12; 1901.4739; 415226.67779099
518.14; 1845.7687; 417105.59068279
519.16; 1787.1921; 418924.87512488
520.18; 1726.9733; 420682.85943959
521.19; 1667.5169; 422380.31969426
522.21; 1611.3991; 424020.65447092
523.23; 1560.3013; 425608.97391114
524.25; 1514.2838; 427150.44948268
525.27; 1471.6746; 428648.55069754
526.28; 1429.6142; 430103.83621977
527.30; 1385.0483; 431513.75563467
528.32; 1335.7968; 432873.53913166
529.34; 1281.3059; 434177.85324929
530.36; 1222.822; 435422.63331839
531.37; 1162.9475; 436606.46373189
532.39; 1104.7694; 437731.07132123
533.41; 1050.8991; 438800.84122231
534.43; 1002.7739; 439821.62182374
535.45; 960.45243; 440799.32095394
536.46; 922.93439; 441738.82833686
537.48; 888.84104; 442643.63015595
538.50; 857.1652; 443516.18734264
539.52; 827.79699; 444358.84895496
540.54; 801.63468; 445174.87847075
541.55; 780.25867; 445969.14813081
542.57; 765.30915; 446748.19981867
543.59; 757.80672; 447519.61435462
544.61; 757.65832; 448290.87783123
545.62; 763.50764; 449068.09566123
546.64; 772.95926; 449854.93482979
547.66; 783.08178; 450652.07828754
548.68; 791.01996; 451457.30247631
549.70; 794.53887; 452266.10875589
550.71; 792.37406; 453072.71136001
551.73; 784.34186; 453871.13752477
552.75; 771.23688; 454656.22338476
553.77; 754.58754; 455424.36094243
554.79; 736.34618; 456173.92958127
555.80; 718.57156; 456905.40442522
556.82; 703.13705; 457621.16759914
557.84; 691.48362; 458325.0680825
558.86; 684.43876; 459021.7972023
559.88; 682.13132; 459716.17745138
560.89; 684.03402; 460412.49456665
561.91; 689.14724; 461114.01671676
562.93; 696.2994; 461822.81946209
563.95; 704.49315; 462539.96308692
564.97; 713.19405; 463265.96385191
565.98; 722.45957; 464001.39652077
567.00; 732.8475; 464747.40365073
568.02; 745.11522; 465505.89879031
569.04; 759.79902; 466279.34141087
570.06; 776.81491; 467070.10546835
571.07; 795.22661; 467879.61184095
572.09; 813.27744; 468707.49318313
573.11; 828.69587; 469551.06981876
574.13; 839.19168; 470405.33073904
575.15; 842.99466; 471263.46293122
576.16; 839.27384; 472117.80748811
577.18; 828.31697; 472960.9984204
578.20; 811.42957; 473786.99870837
579.22; 790.60056; 474591.7959621
580.24; 768.04588; 475373.63353002
581.25; 745.76314; 476132.78822797
582.27; 725.20668; 476871.01733319
583.29; 707.13919; 477590.8545128
584.31; 691.65607; 478294.93054869
