#Wavenumber (cm^-1); Spectrum (K*cm*km*mol^-1); Integral (K*km*mol^-1)
0.00; 9.1815723; 9.3464443782452
1.02; 9.5442389; 19.062067758879
2.04; 10.604627; 29.857120713312
3.05; 12.283583; 42.361278519028
4.07; 14.461071; 57.082024829674
5.09; 16.99262; 74.379778971291
6.11; 19.729485; 94.463543097834
7.13; 22.539557; 117.40783991451
8.14; 25.325467; 143.1880723405
9.16; 28.036232; 171.72774650052
10.18; 30.669648; 202.94812471579
11.20; 33.264317; 236.80976428311
12.22; 35.882658; 273.33676156927
13.23; 38.588794; 312.61848840723
14.25; 41.427107; 354.78949533454
15.27; 44.407664; 399.99458067471
16.29; 47.503241; 448.35083062392
17.31; 50.659385; 499.91989843165
18.32; 53.814685; 554.70092577909
19.34; 56.924616; 612.64772819808
20.36; 59.980323; 673.70510850817
21.38; 63.014785; 737.85144068639
22.40; 66.092816; 805.13107531405
23.41; 69.287341; 875.66259852367
24.43; 72.650152; 949.61731837075
25.45; 76.188483; 1027.1739065188
26.47; 79.857604; 1108.4655015157
27.48; 83.574006; 1193.5402328092
28.50; 87.245382; 1282.3522664841
29.52; 90.805725; 1374.7885761688
30.54; 94.239927; 1470.7207554315
31.56; 97.584675; 1570.057744019
32.57; 100.90111; 1672.7707211538
33.59; 104.22685; 1778.8691605404
34.61; 107.52587; 1888.3258560128
35.63; 110.65938; 2000.9723328551
36.65; 113.39657; 2116.4051505345
37.66; 115.47074; 2233.94937777
38.68; 116.66907; 2352.713455937
39.70; 116.9288; 2471.7419252261
40.72; 116.4056; 2590.23780107
41.74; 115.48564; 2707.7972004559
42.75; 114.72927; 2824.5866480248
43.77; 114.75698; 2941.4043026444
44.79; 116.10859; 3059.5978331154
45.81; 119.11691; 3180.8537098985
46.83; 123.83352; 3306.9108846907
47.84; 130.02716; 3439.2729257657
48.86; 137.252; 3578.9895428995
49.88; 144.96023; 3726.5527997965
50.90; 152.6216; 3881.9150038172
51.92; 159.81358; 4044.5983348108
52.93; 166.25975; 4213.8435813129
53.95; 171.81494; 4388.7437738298
54.97; 176.41505; 4568.3266808529
55.99; 180.0202; 4751.5794809888
57.01; 182.57933; 4937.4373585512
58.02; 184.03248; 5124.7744858283
59.04; 184.3504; 5312.435236682
60.06; 183.59468; 5499.3266984303
61.08; 181.97315; 5684.5675106617
62.10; 179.86505; 5867.662370711
63.11; 177.79987; 6048.6549631146
64.13; 176.38744; 6228.2097689973
65.15; 176.21172; 6407.5856963748
66.17; 177.71131; 6588.4881398436
67.19; 181.07512; 6772.8147963388
68.20; 186.17947; 6962.3374601699
69.22; 192.58522; 7158.3809023217
70.24; 199.60111; 7361.5662179379
71.26; 206.40476; 7571.6773581926
72.27; 212.19865; 7787.6864310557
73.29; 216.36783; 8007.9395476056
74.31; 218.60262; 8230.4675855383
75.33; 218.95526; 8453.3545961234
76.35; 217.81424; 8675.080095851
77.36; 215.80134; 8894.7565482078
78.38; 213.61804; 9112.2104965173
79.40; 211.88321; 9327.8984609084
80.42; 211.00688; 9542.6943580145
81.44; 211.13356; 9757.6192097931
82.45; 212.16568; 9973.5947204758
83.47; 213.85127; 10191.286081346
84.49; 215.8991; 10411.062052542
85.51; 218.07794; 10633.055988585
86.53; 220.26574; 10857.277002225
87.54; 222.43789; 11083.70917136
88.56; 224.61015; 11312.352608938
89.58; 226.77141; 11543.1961184
90.60; 228.84573; 11776.151199382
91.62; 230.70922; 12011.003228817
92.63; 232.26103; 12247.434934607
93.65; 233.51984; 12485.148059482
94.67; 234.69949; 12724.062009319
95.69; 236.21875; 12964.522503539
96.71; 238.62166; 13207.429060193
97.72; 242.41844; 13454.200574538
98.74; 247.89142; 13706.543344105
99.76; 254.93089; 13966.051986903
100.78; 262.96401; 14233.738001525
101.80; 271.01499; 14509.619568412
102.81; 277.89415; 14792.503823178
103.83; 282.47121; 15080.047321981
104.85; 283.95831; 15369.104631828
105.87; 282.1216; 15656.292241729
106.89; 277.35844; 15938.631168995
107.90; 270.61595; 16214.106530865
108.92; 263.17117; 16482.003421741
109.94; 256.33248; 16742.938828561
110.96; 251.14205; 16998.59060155
111.98; 248.15616; 17251.202863335
112.99; 247.3563; 17503.000907004
114.01; 248.20618; 17755.664089134
115.03; 249.83026; 18009.980509476
116.05; 251.25934; 18265.751672853
117.07; 251.67498; 18521.945942508
118.08; 250.59027; 18777.036023523
119.10; 247.92656; 19029.414559289
120.12; 243.97688; 19277.772499428
121.14; 239.27803; 19521.347208716
122.15; 234.43568; 19759.992616559
123.17; 229.95564; 19994.077536185
124.19; 226.12663; 20224.264690268
125.21; 222.98058; 20451.249294124
126.23; 220.3307; 20675.536436367
127.24; 217.86481; 20897.313414548
128.26; 215.25745; 21116.436209949
129.28; 212.26388; 21332.511685066
130.30; 208.77066; 21545.031209616
131.32; 204.79583; 21753.504528255
132.33; 200.45071; 21957.55469883
133.35; 195.88673; 22156.958937969
134.37; 191.25227; 22351.645499381
135.39; 186.67554; 22541.673144904
136.41; 182.27549; 22727.221728678
137.42; 178.18927; 22908.610713018
138.44; 174.59755; 23086.343484527
139.46; 171.73081; 23261.158034543
140.48; 169.84834; 23434.056315685
141.50; 169.19377; 23606.288271866
142.51; 169.93988; 23779.279732087
143.53; 172.13917; 23954.509974055
144.55; 175.69337; 24133.3582396
145.57; 180.34811; 24316.944833818
146.59; 185.71204; 24505.991677593
147.60; 191.29575; 24700.722493836
148.62; 196.56585; 24900.818048276
149.64; 201.01129; 25105.43887006
150.66; 204.21916; 25313.325166373
151.68; 205.95393; 25522.977380165
152.69; 206.22704; 25732.907611164
153.71; 205.33723; 25941.932049115
154.73; 203.86013; 26149.452859722
155.75; 202.57327; 26355.663702666
156.77; 202.31873; 26561.615434761
157.78; 203.8266; 26769.102122878
158.80; 207.53998; 26980.368868492
159.82; 213.48832; 27197.690761074
160.84; 221.24726; 27422.910923874
161.86; 230.00034; 27657.041349912
162.87; 238.6895; 27900.016963397
163.89; 246.21717; 28150.65541508
164.91; 251.6513; 28406.825575005
165.93; 254.38917; 28665.782771138
166.94; 254.25283; 28924.60118479
167.96; 251.5101; 29180.627616392
168.98; 246.83119; 29431.891118068
170.00; 241.19726; 29677.419518872
171.02; 235.77415; 29917.427425904
172.03; 231.75894; 30153.348022801
173.05; 230.20607; 30387.687864351
174.07; 231.84802; 30623.699141042
175.09; 236.94048; 30864.894327722
176.11; 245.17467; 31114.471566939
177.12; 255.69911; 31374.762229095
178.14; 267.27274; 31646.834347936
179.16; 278.53271; 31930.368631845
180.18; 288.31571; 32223.861582044
181.20; 295.94017; 32525.115909568
182.21; 301.35498; 32831.882272954
183.23; 305.09504; 33142.455856428
184.25; 308.04839; 33456.035820505
185.27; 311.10991; 33772.732286005
186.29; 314.84686; 34093.232803945
187.30; 319.3069; 34418.273446582
188.32; 324.05401; 34748.146448177
189.34; 328.43352; 35082.47759963
190.36; 331.97478; 35420.41360398
191.38; 334.77515; 35761.200256645
192.39; 337.69896; 36104.963222382
193.41; 342.28008; 36453.389577832
194.43; 350.31912; 36809.999322909
195.45; 363.28216; 37179.804889935
196.47; 381.69441; 37568.353326724
197.48; 404.74477; 37980.366036341
198.50; 430.26581; 38418.358059824
199.52; 455.13995; 38881.670893423
200.54; 476.04562; 39366.264796191
201.56; 490.34042; 39865.410184023
202.57; 496.82328; 40371.154848708
203.59; 496.14206; 40876.206057818
204.61; 490.71113; 41375.728817531
205.63; 484.14487; 41868.567408252
206.65; 480.35286; 42357.545889178
207.66; 482.53959; 42848.750372343
208.68; 492.37673; 43349.968634704
209.70; 509.56389; 43868.682684692
210.72; 531.88341; 44410.117040775
211.74; 555.71872; 44975.814713949
212.75; 576.88608; 45563.059850627
213.77; 591.55757; 46165.239932182
214.79; 597.04661; 46773.007618631
215.81; 592.28244; 47375.925586223
216.82; 577.8957; 47964.198468387
217.84; 555.94274; 48530.124184309
218.86; 529.38098; 49069.01118056
219.88; 501.44991; 49579.465552611
220.90; 475.10674; 50063.103714673
221.91; 452.62158; 50523.85294987
222.93; 435.37405; 50967.04495061
223.95; 423.83498; 51398.49066963
224.97; 417.67951; 51823.670390686
225.99; 415.96958; 52247.109478087
227.00; 417.35729; 52671.961185295
228.02; 420.28522; 53099.793399311
229.04; 423.17946; 53530.571827216
230.06; 424.63692; 53962.833891008
231.08; 423.60034; 54394.040760572
232.09; 419.49879; 54821.07242921
233.11; 412.32071; 55240.797122
234.13; 402.58957; 55650.615934824
235.15; 391.23225; 56048.873480079
236.17; 379.361; 56435.046608157
237.18; 368.01988; 56809.674968349
238.20; 357.96234; 57174.065180504
239.22; 349.52101; 57529.862488173
240.24; 342.60372; 57878.618291007
241.26; 336.81015; 58221.476485697
242.27; 331.62642; 58559.057874775
243.29; 326.63213; 58891.555293265
244.31; 321.65411; 59218.985294185
245.33; 316.82244; 59541.496866387
246.35; 312.51797; 59859.626676868
247.36; 309.23469; 60174.414243963
248.38; 307.40424; 60487.338497279
249.40; 307.23685; 60800.092353137
250.42; 308.62315; 61114.257399851
251.44; 311.12097; 61430.965126177
252.45; 314.02665; 61750.630707711
253.47; 316.50948; 62072.823698667
254.49; 317.77516; 62396.305097618
255.51; 317.22031; 62719.221681962
256.53; 314.54498; 63039.414899169
257.54; 309.80154; 63354.779496897
258.56; 303.37319; 63663.600316073
259.58; 295.89146; 63964.805054988
260.60; 288.11504; 64258.093729999
261.61; 280.80001; 64543.936020539
262.63; 274.59051; 64823.457311219
263.65; 269.94974; 65098.254497698
264.67; 267.13641; 65370.187834159
265.69; 266.21678; 65641.185025671
266.70; 267.0931; 65913.074275821
267.72; 269.52987; 66187.444048915
268.74; 273.16936; 66465.518672612
269.76; 277.54292; 66748.045383924
270.78; 282.0959; 67035.206832342
271.79; 286.24596; 67326.592872528
272.81; 289.48221; 67621.273274687
273.83; 291.49145; 67917.998993443
274.85; 292.27614; 68215.523486746
275.87; 292.21738; 68512.988168545
276.88; 292.04391; 68810.276270649
277.90; 292.69427; 69108.226404772
278.92; 295.0964; 69408.621803344
279.94; 299.92264; 69713.930105013
280.96; 307.39374; 70026.84367259
281.97; 317.19597; 70349.735479736
282.99; 328.54107; 70684.176111043
284.01; 340.35299; 71030.640770405
285.03; 351.52312; 71388.476135776
286.05; 361.15477; 71756.116110879
287.06; 368.72445; 72131.461686956
288.08; 374.11911; 72512.298798173
289.10; 377.55348; 72896.631946393
290.12; 379.41101; 73282.855986186
291.14; 380.07375; 73669.754662103
292.15; 379.80195; 74056.376655017
293.17; 378.69915; 74441.87604307
294.19; 376.76229; 74825.403799501
295.21; 373.98476; 75206.104142822
296.23; 370.46299; 75583.219482637
297.24; 366.46013; 75956.260082558
298.26; 362.39833; 76325.165941009
299.28; 358.77837; 76690.386841033
300.30; 356.04987; 77052.830247895
301.32; 354.47095; 77413.666376314
302.33; 353.99957; 77774.022667841
303.35; 354.25051; 78134.634396704
304.37; 354.5353; 78495.53602984
305.39; 353.98314; 78855.875587392
306.41; 351.72056; 79213.911935774
307.42; 347.07229; 79567.216546845
308.44; 339.73667; 79913.053821656
309.46; 329.88994; 80248.867543418
310.48; 318.18596; 80572.767123691
311.49; 305.64159; 80883.897069071
312.51; 293.42709; 81182.593183856
313.53; 282.61017; 81470.278145717
314.55; 273.91947; 81749.116348299
315.57; 267.59308; 82021.514555398
316.58; 263.35614; 82289.599744577
317.60; 260.53419; 82554.812311109
318.62; 258.26707; 82817.717038608
319.64; 255.75647; 83078.066088427
320.66; 252.47039; 83335.070046141
321.67; 248.24396; 83587.77168297
322.69; 243.25424; 83835.393999737
323.71; 237.89111; 84077.556887995
324.73; 232.58238; 84314.31571644
325.75; 227.64342; 84546.046894787
326.76; 223.20684; 84773.261825702
327.78; 219.25103; 84996.449913128
328.80; 215.70364; 85216.026908145
329.82; 212.56424; 85432.40812924
330.84; 209.98277; 85646.161523347
331.85; 208.24984; 85858.150878042
332.87; 207.6939; 86069.574309219
333.89; 208.52201; 86281.840715508
334.91; 210.6691; 86496.292764585
335.93; 213.72221; 86713.85275024
336.94; 216.96091; 86934.709593978
337.96; 219.51211; 87158.163449548
338.98; 220.57365; 87382.697903134
340.00; 219.63331; 87606.275130805
341.02; 216.60921; 87826.773960613
342.03; 211.86385; 88042.44222006
343.05; 206.08748; 88252.230385976
344.07; 200.0908; 88455.91418459
345.09; 194.57573; 88653.98388509
346.11; 189.95723; 88847.352150545
347.12; 186.28764; 89036.98492715
348.14; 183.29825; 89223.574633659
349.16; 180.53352; 89407.349964265
350.18; 177.5262; 89588.063979007
351.20; 173.95454; 89765.14218989
352.21; 169.73551; 89937.925613767
353.23; 165.03456; 90105.923678082
354.25; 160.20053; 90269.000908734
355.27; 155.65577; 90427.451766913
356.28; 151.77907; 90581.956312015
357.30; 148.81358; 90733.442116605
358.32; 146.818; 90882.896501378
359.34; 145.66386; 91031.176023159
360.36; 145.07027; 91178.851298031
361.37; 144.66228; 91326.111254365
362.39; 144.03965; 91472.737407389
363.41; 142.84581; 91618.148279836
364.43; 140.82902; 91761.506143123
365.45; 137.88875; 91901.870937759
366.46; 134.09957; 92038.378509005
367.48; 129.70571; 92170.413325597
368.50; 125.08332; 92297.742744274
369.52; 120.67431; 92420.583981396
370.54; 116.9044; 92539.58761955
371.55; 114.10408; 92655.740647192
372.57; 112.45245; 92770.212386115
373.59; 111.95868; 92884.181493263
374.61; 112.48479; 92998.686159013
375.63; 113.80131; 93114.530983118
376.64; 115.65783; 93232.265660176
377.66; 117.84709; 93352.228910533
378.68; 120.24526; 93474.633397574
379.70; 122.8203; 93599.659158193
380.72; 125.61124; 93727.525983714
381.73; 128.68989; 93858.526733763
382.75; 132.11933; 93993.018506999
383.77; 135.92205; 94131.381289228
384.79; 140.06394; 94273.960336989
385.81; 144.45406; 94421.00833552
386.82; 148.95519; 94572.63829061
387.84; 153.39877; 94728.791617367
388.86; 157.59952; 94889.221132711
389.88; 161.3684; 95053.487203041
390.90; 164.52516; 95220.966718665
391.91; 166.91305; 95390.877002087
392.93; 168.41677; 95562.318007953
393.95; 168.98238; 95734.334775803
394.97; 168.63501; 95905.997942355
395.99; 167.48892; 96076.494437298
397.00; 165.74464; 96245.215327892
398.02; 163.67093; 96411.825268603
399.04; 161.57303; 96576.29963628
400.06; 159.75322; 96738.921516918
401.07; 158.473; 96900.24018925
402.09; 157.92717; 97061.00323825
403.11; 158.23798; 97222.082673351
404.13; 159.47186; 97384.418140734
405.15; 161.67404; 97548.995338532
406.16; 164.90857; 97716.865141797
407.18; 169.28667; 97889.191670664
408.20; 174.96755; 98067.301082837
409.22; 182.12235; 98252.693773751
410.24; 190.86502; 98446.986131986
411.25; 201.16703; 98651.765485697
412.27; 212.78329; 98868.369697439
413.29; 225.21872; 99097.632633511
414.31; 237.75588; 99339.657864343
415.33; 249.54753; 99593.68648108
416.34; 259.75633; 99858.107215377
417.36; 267.70747; 100130.62186615
418.38; 273.01246; 100408.53677305
419.40; 275.62919; 100689.11539884
420.42; 275.84137; 100969.91001283
421.43; 274.16473; 101248.99787899
422.45; 271.20877; 101525.07670338
423.47; 267.53458; 101797.41536387
424.49; 263.54755; 102065.69539221
425.51; 259.44964; 102329.80392924
426.52; 255.25574; 102589.64325297
427.54; 250.85855; 102845.0064337
428.56; 246.11481; 103095.54069034
429.58; 240.92331; 103340.790225
430.60; 235.2733; 103580.28828833
431.61; 229.2544; 103813.65937032
432.63; 223.03251; 104040.69684381
433.65; 216.80508; 104261.39505826
434.67; 210.75243; 104475.93193924
435.69; 205.00024; 104684.61334215
436.70; 199.6029; 104887.80047663
437.72; 194.55147; 105085.84547742
438.74; 189.80403; 105279.05779036
439.76; 185.3304; 105467.71613585
440.78; 181.15923; 105652.12841114
441.79; 177.41263; 105832.72680886
442.81; 174.31393; 106010.17086919
443.83; 172.15939; 106185.42169537
444.85; 171.25397; 106359.75084604
445.87; 171.82399; 106534.66025311
446.88; 173.93021; 106711.71370277
447.90; 177.41053; 106892.30996738
448.92; 181.87711; 107077.45301941
449.94; 186.77895; 107267.58593234
450.95; 191.5207; 107462.54573941
451.97; 195.60886; 107661.66711306
452.99; 198.78452; 107864.02117251
454.01; 201.10279; 108068.73513707
455.03; 202.9334; 108275.31258349
456.04; 204.88021; 108483.87179897
457.06; 207.64168; 108695.24206955
458.08; 211.85085; 108910.89709039
459.10; 217.93728; 109132.74784146
460.12; 226.04369; 109362.8505679
461.13; 236.01128; 109603.09986341
462.15; 247.42787; 109854.97076068
463.17; 259.71843; 110119.35291371
464.19; 272.25243; 110396.49413862
465.21; 284.44697; 110686.04887537
466.22; 295.8528; 110987.21426214
467.24; 306.21852; 111298.9315044
468.26; 315.53067; 111620.12811301
469.28; 324.02554; 111949.9721348
470.30; 332.16421; 112288.10096636
471.31; 340.56195; 112634.77833131
472.33; 349.87035; 112990.93124634
473.35; 360.62528; 113358.03222179
474.37; 373.09195; 113737.82373185
475.39; 387.15136; 114131.92711265
476.40; 402.2725; 114541.42315731
477.42; 417.59721; 114966.51909206
478.44; 432.13235; 115406.4111761
479.46; 445.00628; 115859.40836343
480.48; 455.71713; 116323.30873657
481.49; 464.29234; 116795.93830698
482.51; 471.2982; 117275.6995353
483.53; 477.68227; 117761.95947791
484.55; 484.48696; 118255.14629975
485.57; 492.51957; 118756.50997339
486.58; 502.08577; 119267.61162091
487.60; 512.87774; 119789.69902418
488.62; 524.0594; 120323.16887525
489.64; 534.52363; 120867.29086342
490.66; 543.23477; 121420.28041372
491.67; 549.53691; 121979.68527117
492.69; 553.31856; 122542.93969074
493.71; 554.97521; 123107.88051011
494.73; 555.18584; 123673.03573726
495.74; 554.58997; 124237.58439598
496.76; 553.49116; 124801.01451066
497.78; 551.70467; 125362.62606028
498.80; 548.61351; 125921.09093668
499.82; 543.41675; 126474.26573873
500.83; 535.47865; 127019.35989676
501.85; 524.64469; 127553.42555659
502.87; 511.39996; 128074.00864704
503.89; 496.8022; 128579.73184417
504.91; 482.20634; 129070.5970934
505.92; 468.87586; 129547.8924831
506.94; 457.61929; 130013.72917809
507.96; 448.58133; 130470.36561724
508.98; 441.25977; 130919.54901845
510.00; 434.73669; 131362.09220695
511.01; 428.03511; 131797.81347474
512.03; 420.47083; 132225.83463873
513.05; 411.8777; 132645.10836081
514.07; 402.63683; 133054.97527958
515.09; 393.51546; 133455.55704023
516.10; 385.38782; 133847.86521578
517.12; 378.94555; 134233.61543576
518.14; 374.49694; 134614.83716344
519.16; 371.9106; 134993.42610408
520.18; 370.7; 135370.78270948
521.19; 370.19599; 135747.6262527
522.21; 369.73221; 136123.99768871
523.23; 368.77949; 136499.39929357
524.25; 366.99944; 136872.98888407
525.27; 364.22763; 137243.75689838
526.28; 360.42381; 137610.65278816
527.30; 355.6306; 137972.66939659
528.32; 349.96435; 138328.91799983
529.34; 343.63339; 138678.72195734
530.36; 336.95624; 139021.72886495
531.37; 330.34663; 139358.00747945
532.39; 324.24729; 139688.07722382
533.41; 319.02217; 140012.82802679
534.43; 314.84396; 140333.32559088
535.45; 311.62532; 140650.54672388
536.46; 309.03251; 140965.12848821
537.48; 306.59001; 141277.22389274
538.50; 303.84801; 141586.52805137
539.52; 300.55554; 141892.48062166
540.54; 296.77468; 142194.58443746
541.55; 292.88864; 142492.73243414
542.57; 289.49396; 142787.42479532
543.59; 287.20874; 143079.79089611
544.61; 286.4599; 143371.39471133
545.62; 287.3205; 143663.8745805
546.64; 289.45041; 143958.52261139
547.66; 292.15819; 144255.92703892
548.68; 294.56177; 144555.77821254
549.70; 295.79647; 144856.8862577
550.71; 295.20911; 145157.3963975
551.73; 292.48955; 145455.13813652
552.75; 287.71677; 145748.0213966
553.77; 281.32551; 146034.39862237
554.79; 274.01877; 146313.3379067
555.80; 266.65732; 146584.78354734
556.82; 260.14892; 146849.60392646
557.84; 255.34728; 147109.53643554
558.86; 252.95989; 147367.03868504
559.88; 253.46369; 147625.0537834
560.89; 257.03489; 147886.70421017
561.91; 263.51068; 148154.94671486
562.93; 272.40554; 148432.24379767
563.95; 282.99745; 148720.32299077
564.97; 294.47931; 149020.09022464
565.98; 306.14426; 149331.73186838
567.00; 317.55312; 149654.98723836
568.02; 328.62812; 149989.51648816
569.04; 339.63478; 150335.25003768
570.06; 351.04926; 150692.60303919
571.07; 363.34932; 151062.47696816
572.09; 376.79598; 151446.03902096
573.11; 391.27925; 151844.34441399
574.13; 406.27931; 152257.91922079
575.15; 420.95414; 152686.43237529
576.16; 434.32033; 153128.5517319
577.18; 445.46457; 153582.01544279
578.20; 453.72002; 154043.8828457
579.22; 458.76419; 154510.88499145
580.24; 460.63211; 154979.78860255
581.25; 459.67242; 155447.71528847
582.27; 456.48849; 155912.40087342
583.29; 451.89656; 156372.41207049
584.31; 446.90356; 156827.34060808
585.33; 442.6768; 157277.96649063
