#Wavenumber (cm^-1); Spectrum (K*cm*km*mol^-1); Integral (K*km*mol^-1)
0.00; 51.526036; 52.45128114529
1.02; 53.913831; 107.33323465649
2.04; 60.945816; 169.37344504286
3.05; 72.24277; 242.91346774702
4.07; 87.221728; 331.70142313811
5.09; 105.16555; 438.7554156617
6.11; 125.3097; 566.31528045547
7.13; 146.93207; 715.88579162189
8.14; 169.42774; 888.35592140915
9.16; 192.35102; 1084.1609548901
10.18; 215.41464; 1303.4437614687
11.20; 238.44791; 1546.1734493703
12.22; 261.32888; 1812.1949684136
13.23; 283.91455; 2101.2077275054
14.25; 305.99438; 2412.6967975747
15.27; 327.28412; 2745.8579110294
16.29; 347.46395; 3099.561218522
17.31; 366.24975; 3472.3876568921
18.32; 383.47618; 3862.7498597314
19.34; 399.16616; 4269.0837825764
20.36; 413.5646; 4690.0746993466
21.38; 427.12254; 5124.8670167143
22.40; 440.4282; 5573.2039195615
23.41; 454.09282; 6035.4508184983
24.43; 468.61005; 6512.4756317625
25.45; 484.2173; 7005.3879524115
26.47; 500.79431; 7515.1749477354
27.48; 517.83406; 8042.30767292
28.50; 534.511; 8586.416801906
29.52; 549.84919; 9146.139553308
30.54; 562.96261; 9719.211194613
31.56; 573.30932; 10302.815341181
32.57; 580.88392; 10894.130102688
33.59; 586.27776; 11490.935560384
34.61; 590.56898; 12092.10930002
35.63; 595.05625; 12697.850880057
36.65; 600.90502; 13309.546262533
37.66; 608.81257; 13929.291183143
38.68; 618.80018; 14559.203067441
39.70; 630.20503; 15200.724591099
40.72; 641.87873; 15854.12944492
41.74; 652.53; 16518.376824722
42.75; 661.09907; 17191.347149508
43.77; 667.04341; 17870.368560607
44.79; 670.4488; 18552.856508743
45.81; 671.9451; 19236.867622955
46.83; 672.47507; 19921.418221789
47.84; 673.01071; 20606.514080852
48.86; 674.31858; 21292.941292123
49.88; 676.84317; 21981.938432137
50.90; 680.72265; 22674.884711813
51.92; 685.89807; 23373.099347581
52.93; 692.24828; 24077.778229369
53.95; 699.68643; 24790.028817671
54.97; 708.18497; 25510.930552969
55.99; 717.73653; 26241.555366504
57.01; 728.2871; 26982.92020605
58.02; 739.68441; 27735.887014633
59.04; 751.6672; 28501.051787749
60.06; 763.89304; 29278.661936148
61.08; 775.98002; 30068.576111126
62.10; 787.53381; 30870.251547921
63.11; 798.14732; 31682.731074614
64.13; 807.386; 32504.615183033
65.15; 814.79118; 33334.037445622
66.17; 819.93304; 34168.6938987
67.19; 822.52174; 35005.985538221
68.20; 822.54861; 35843.304523674
69.22; 820.39827; 36678.434555895
70.24; 816.86522; 37509.968102806
71.26; 813.03257; 38337.600174185
72.27; 810.02059; 39162.166179706
73.29; 808.66899; 39985.356320056
74.31; 809.25459; 40809.142568675
75.33; 811.34775; 41635.059567732
76.35; 813.87254; 42463.546689694
77.36; 815.369; 43293.557151392
78.38; 814.38741; 44122.568392107
79.40; 809.89787; 44947.009471512
80.42; 801.59326; 45762.996824338
81.44; 789.9987; 46567.181413655
82.45; 776.36317; 47357.485616188
83.47; 762.37515; 48133.550616364
84.49; 749.79053; 48896.805020127
85.51; 740.07503; 49650.16946678
86.53; 734.14447; 50397.496856402
87.54; 732.24626; 51142.891953979
88.56; 733.98161; 51890.053565307
89.58; 738.43503; 52641.748556529
90.60; 744.36381; 53399.478798041
91.62; 750.40376; 54163.357448184
92.63; 755.26044; 54932.179986108
93.65; 757.87006; 55703.659004914
94.67; 757.52293; 56474.784659556
95.69; 753.94507; 57242.268201924
96.71; 747.33253; 58003.020465568
97.72; 738.33247; 58754.611056754
98.74; 727.96785; 59495.650919616
99.76; 717.50948; 60226.044606871
100.78; 708.30701; 60947.070580491
101.80; 701.59792; 61661.266988068
102.81; 698.31718; 62372.123746298
103.83; 698.93226; 63083.606630848
104.85; 703.32752; 63799.563700917
105.87; 710.76085; 64523.087573423
106.89; 719.91154; 65255.926460095
107.90; 729.03004; 65998.047582925
108.92; 736.18429; 66747.451421093
109.94; 739.57557; 67500.307440177
110.96; 737.87205; 68251.4293455
111.98; 730.49006; 68995.036702851
112.99; 717.75037; 69725.675607547
114.01; 700.85511; 70439.115865142
115.03; 681.67065; 71133.027172615
116.05; 662.35341; 71807.274358669
117.07; 644.90383; 72463.758632421
118.08; 630.76249; 73105.847633754
119.10; 620.55813; 73737.549036921
120.12; 614.07919; 74362.655157079
121.14; 610.47615; 74984.093531689
122.15; 608.6315; 75603.654131172
123.17; 607.5798; 76222.144148278
124.19; 606.84085; 76839.881946917
125.21; 606.55331; 77457.327046798
126.23; 607.35843; 78075.591724591
127.24; 610.06543; 78696.612002811
128.26; 615.20614; 79322.865305841
129.28; 622.63131; 79956.677114312
130.30; 631.29791; 80599.311146707
131.32; 639.34492; 81250.136689338
132.33; 644.46737; 81906.176658087
133.35; 644.50146; 82562.251337971
134.37; 638.05823; 83211.767081709
135.39; 625.01365; 83848.004003061
136.41; 606.69322; 84465.591517013
137.42; 585.67069; 85061.779004161
138.44; 565.21262; 85637.141056319
139.46; 548.50819; 86195.49872211
140.48; 537.8939; 86743.051502658
141.50; 534.2917; 87286.93739808
142.51; 537.02233; 87833.602954834
143.53; 544.04862; 88387.420975872
144.55; 552.57837; 88949.921909249
145.57; 559.85148; 89519.826554556
146.59; 563.88412; 90093.836258936
147.60; 563.95893; 90667.922113547
148.62; 560.72985; 91238.720908455
149.64; 555.92735; 91804.630959858
150.66; 551.76719; 92366.306153261
151.68; 550.24881; 92926.435697297
152.69; 552.55216; 93488.909954209
153.71; 558.70215; 94057.644636867
154.73; 567.58124; 94635.417850416
155.75; 577.26456; 95223.048260144
156.77; 585.56038; 95819.123454478
157.78; 590.58905; 96420.317622199
158.80; 591.23675; 97022.17112003
159.82; 587.37135; 97620.08980692
160.84; 579.78663; 98210.287578808
161.86; 569.92135; 98790.442917992
162.87; 559.4573; 99359.946306245
163.89; 549.92055; 99919.741698669
164.91; 542.39042; 100471.87174074
165.93; 537.37243; 101018.89368442
166.94; 534.83304; 101563.33063866
167.96; 534.34515; 102107.27094743
168.98; 535.26979; 102652.15249931
170.00; 536.90588; 103198.69952019
171.02; 538.57157; 103746.94214292
172.03; 539.62253; 104296.25459241
173.05; 539.44754; 104845.38891354
174.07; 537.4948; 105392.53542267
175.09; 533.36665; 105935.4796586
176.11; 526.98229; 106471.92489339
177.12; 518.76096; 107000.0011664
178.14; 509.7444; 107518.89896421
179.16; 501.57307; 108029.47870803
180.18; 496.2643; 108534.65435136
181.20; 495.80419; 109039.36161951
182.21; 501.63916; 109550.00863779
183.23; 514.20836; 110073.45055535
184.25; 532.67132; 110615.68697328
185.27; 554.94485; 111180.59688792
186.29; 578.07684; 111769.05416754
187.30; 598.87966; 112378.68781934
188.32; 614.65752; 113004.38264788
189.34; 623.82314; 113639.40768104
190.36; 626.22629; 114276.87902156
191.38; 623.10272; 114911.17069997
192.39; 616.66865; 115538.91277887
193.41; 609.49339; 116159.35074452
194.43; 603.84326; 116774.03712868
195.45; 601.18592; 117386.01845186
196.47; 601.97782; 117998.80589452
197.48; 605.75811; 118615.44150657
198.50; 611.47454; 119237.89620163
199.52; 617.90631; 119866.89816552
200.54; 624.04079; 120502.14475804
201.56; 629.30184; 121142.74688017
202.57; 633.59469; 121787.71893115
203.59; 637.19643; 122436.35740142
204.61; 640.56125; 123088.42110775
205.63; 644.11453; 123744.10190241
206.65; 648.09015; 124403.82971184
207.66; 652.43507; 125067.98046257
208.68; 656.78284; 125736.55705316
209.70; 660.48969; 126408.90705634
210.72; 662.7298; 127083.53739879
211.74; 662.64894; 127758.08542899
212.75; 659.56712; 128429.49629802
213.77; 653.19933; 129094.42502599
214.79; 643.83759; 129749.82391151
215.81; 632.42442; 130393.6046798
216.82; 620.46128; 131025.20748484
217.84; 609.74018; 131645.89667742
218.86; 601.94907; 132258.65485538
219.88; 598.25827; 132867.65596179
220.90; 599.01953; 133477.43199665
221.91; 603.68484; 134091.95711506
222.93; 610.9838; 134713.91225415
223.95; 619.30887; 135344.34196098
224.97; 627.18301; 135982.78720158
225.99; 633.65399; 136627.81962133
227.00; 638.48874; 137277.77360653
228.02; 642.11715; 137931.42115208
229.04; 645.36816; 138588.37809491
230.06; 649.11324; 139249.14735973
231.08; 653.95494; 139914.845268
232.09; 660.06569; 140586.76365667
233.11; 667.20957; 141265.9542122
234.13; 674.90307; 141952.97641819
235.15; 682.62127; 142647.85541688
236.17; 689.95408; 143350.19889489
237.18; 696.65868; 144059.36736861
238.20; 702.61666; 144774.60081079
239.22; 707.75532; 145495.06518296
240.24; 712.0081; 146219.8587085
241.26; 715.36223; 146948.06658678
242.27; 717.98637; 147678.94572864
243.29; 720.37626; 148412.2576728
244.31; 723.42817; 149148.67632895
245.33; 728.36578; 149890.12126482
246.35; 736.49955; 150639.84602118
247.36; 748.86782; 151402.16115114
248.38; 765.86636; 152181.78005374
249.40; 786.99232; 152982.90427313
250.42; 810.80299; 153808.26672753
251.44; 835.12581; 154658.38876383
252.45; 857.47934; 155531.26572849
253.47; 875.60007; 156422.58881915
254.49; 887.9386; 157326.47199754
255.51; 893.99771; 158236.52309026
256.53; 894.42896; 159147.0131757
257.54; 890.86724; 160053.87758174
258.56; 885.54706; 160955.32627454
259.58; 880.79374; 161851.93629278
260.60; 878.50814; 162746.21966656
261.61; 879.76185; 163641.77927117
262.63; 884.59298; 164542.25675011
263.65; 892.04644; 165450.32153533
264.67; 900.44711; 166366.93784026
265.69; 907.83901; 167291.07877327
266.70; 912.48365; 168219.94774977
267.72; 913.29513; 169149.6427813
268.74; 910.1052; 170076.09060613
269.76; 903.69608; 170996.01422338
270.78; 895.60052; 171907.69690255
271.79; 887.7302; 172811.36793978
272.81; 881.9367; 173709.14143818
273.83; 879.62081; 174604.55746952
274.85; 881.48484; 175501.87099506
275.87; 887.47523; 176405.28247997
276.88; 896.90796; 177318.29607556
277.90; 908.72109; 178243.33492935
278.92; 921.77258; 179181.65963972
279.94; 935.09943; 180133.55050476
280.96; 948.07389; 181098.64881433
281.97; 960.42536; 182076.32038723
282.99; 972.13315; 183065.90998374
284.01; 983.22907; 184066.7947444
285.03; 993.57344; 185078.20963267
286.05; 1002.6802; 186098.89479257
287.06; 1009.6612; 187126.68632969
288.08; 1013.3351; 188158.21776976
289.10; 1012.5007; 189188.89983829
290.12; 1006.3198; 190213.28992542
291.14; 994.70277; 191225.85442084
292.15; 978.56576; 192221.99213734
293.17; 959.8395; 193199.06733278
294.19; 941.17522; 194157.14309029
295.21; 925.3834; 195099.14345998
296.23; 914.7401; 196030.30941309
297.24; 910.3593; 196957.01589419
298.26; 911.83235; 197885.22187896
299.28; 917.26717; 198818.96028096
300.30; 923.7385; 199759.28620924
301.32; 928.02745; 200703.97810467
302.33; 927.43166; 201648.06351633
303.35; 920.40328; 202584.99433672
304.37; 906.83216; 203508.11034422
305.39; 887.91367; 204411.9681405
306.41; 865.679; 205293.19200741
307.42; 842.37027; 206150.68858836
308.44; 819.87507; 206985.28602919
309.46; 799.38929; 207799.02982884
310.48; 781.37452; 208594.43537471
311.49; 765.76235; 209373.94840148
312.51; 752.2756; 210139.73250335
313.53; 740.71548; 210893.7489006
314.55; 731.10329; 211637.98050235
315.57; 723.64333; 212374.61818799
316.58; 718.5523; 213106.07342062
317.60; 715.84854; 213834.77634319
318.62; 715.19685; 214562.81587588
319.64; 715.86777; 215291.53837178
320.66; 716.81707; 216021.22721521
321.67; 716.84717; 216750.94670589
322.69; 714.79403; 217478.57618531
323.71; 709.69261; 218201.01263979
324.73; 700.899; 218914.49757888
325.75; 688.16974; 219615.02468009
326.76; 671.70705; 220298.79347577
327.78; 652.17043; 220962.67482708
328.80; 630.64042; 221604.63956414
329.82; 608.51394; 222224.08049796
330.84; 587.32123; 222821.9481625
331.85; 568.483; 223400.63932499
332.87; 553.05878; 223963.62929686
333.89; 541.55732; 224514.91128094
334.91; 533.8734; 225058.37136552
335.93; 529.37989; 225597.25724619
336.94; 527.15213; 226133.875369
337.96; 526.25421; 226669.57944456
338.98; 525.9941; 227205.01873565
340.00; 526.06811; 227740.53337486
341.02; 526.55861; 228276.54731676
342.03; 527.80456; 228813.8295817
343.05; 530.20882; 229353.55927769
344.07; 534.05994; 229897.20924799
345.09; 539.42706; 230446.32271886
346.11; 546.14465; 231002.27440083
347.12; 553.86128; 231566.08128414
348.14; 562.10428; 232138.2791856
349.16; 570.31919; 232718.83951326
350.18; 577.87523; 233307.09156004
351.20; 584.06531; 233901.64483715
352.21; 588.15048; 234500.35664855
353.23; 589.48836; 235100.43036357
354.25; 587.74423; 235698.72862414
355.27; 583.1298; 236292.329598
356.28; 576.57384; 236879.25688446
357.30; 569.72486; 237459.21220652
358.32; 564.72807; 238034.08101103
359.34; 563.79449; 238607.99947683
360.36; 568.66269; 239186.87355837
361.37; 580.10822; 239777.39869165
362.39; 597.65866; 240385.7894157
363.41; 619.61725; 241016.53303996
364.43; 643.4038; 241671.4903395
365.45; 666.12158; 242349.57335902
366.46; 685.18994; 243047.06714707
367.48; 698.86814; 243758.48476027
368.50; 706.53999; 244477.71197911
369.52; 708.71078; 245199.1489669
370.54; 706.75652; 245918.59660907
371.55; 702.52744; 246633.73922349
372.57; 697.9262; 247344.19797348
373.59; 694.55742; 248051.22745309
374.61; 693.49663; 248757.17710077
375.63; 695.18021; 249464.84055782
376.64; 699.39171; 250176.79113782
377.66; 705.32071; 250894.77718585
378.68; 711.68741; 251619.24426081
379.70; 716.94151; 252349.05978484
380.72; 719.5407; 253081.52116293
381.73; 718.28708; 253812.70641422
382.75; 712.66002; 254538.16356269
383.77; 703.05135; 255253.83950169
384.79; 690.80692; 255957.05113352
385.81; 678.01679; 256647.24296891
386.82; 667.06944; 257326.29087429
387.84; 660.06831; 257998.21192873
388.86; 658.27103; 258668.30343146
389.88; 661.72433; 259341.91024663
390.90; 669.22093; 260023.14827909
391.91; 678.61004; 260713.94401607
392.93; 687.38061; 261413.66781333
393.95; 693.34528; 262119.46338436
394.97; 695.21529; 262827.1625544
395.99; 692.88796; 263532.4925976
397.00; 687.35889; 264232.1942838
398.02; 680.29283; 264924.70302951
399.04; 673.39822; 265610.19336028
400.06; 667.81528; 266290.00049592
401.07; 663.72341; 266965.64228421
402.09; 660.30146; 267637.8006733
403.11; 656.05725; 268305.63864794
404.13; 649.41885; 268966.7190144
405.15; 639.38968; 269617.5901197
406.16; 626.04407; 270254.87597198
407.18; 610.68767; 270876.52966816
408.20; 595.61501; 271482.84004304
409.22; 583.52869; 272076.84706979
410.24; 576.79748; 272664.00201633
411.25; 576.78557; 273251.14484199
412.27; 583.46327; 273845.085277
413.29; 595.41713; 274451.19421741
414.31; 610.24726; 275072.3995957
415.33; 625.2166; 275708.84311761
416.34; 637.94339; 276358.24195633
417.36; 646.92908; 277016.78784234
418.38; 651.78459; 277680.27643188
419.40; 653.12917; 278345.13374654
420.42; 652.24501; 279009.09102254
421.43; 650.63681; 279671.41122249
422.45; 649.64897; 280332.72583926
423.47; 650.24002; 280994.64211741
424.49; 652.93371; 281659.30045416
425.51; 657.89537; 282329.00955604
426.52; 665.05047; 283006.00223383
427.54; 674.1764; 283692.28471585
428.56; 684.94448; 284389.52864296
429.58; 696.93582; 285098.97922888
430.60; 709.67628; 285821.3990611
431.61; 722.7198; 286557.09662655
432.63; 735.76596; 287306.07462519
433.65; 748.75581; 288068.27573273
434.67; 761.87563; 288843.83225043
435.69; 775.4287; 289633.18520358
436.70; 789.59859; 290436.96249573
437.72; 804.19506; 291255.59836181
438.74; 818.50746; 292088.80364067
439.76; 831.36715; 292935.0995227
440.78; 841.44108; 293791.65023178
441.79; 847.67639; 294654.54821462
442.81; 849.73572; 295519.54251203
443.83; 848.24811; 296383.0224887
444.85; 844.76268; 297242.95444874
445.87; 841.41066; 298099.47419285
446.88; 840.40335; 298954.96854181
447.90; 843.56344; 299813.67972524
448.92; 852.06894; 300681.04913452
449.94; 866.48909; 301563.09763633
450.95; 887.05523; 302466.08158533
451.97; 914.00323; 303396.49743495
452.99; 947.80253; 304361.31950948
454.01; 989.16376; 305368.24553215
455.03; 1038.8557; 306425.75584699
456.04; 1097.4901; 307542.9534076
457.06; 1165.4737; 308729.35530639
458.08; 1243.249; 309994.9291167
459.10; 1331.7689; 311350.61234043
460.12; 1432.9666; 312809.31052673
461.13; 1549.8945; 314387.03627658
462.15; 1686.2826; 316103.59916824
463.17; 1845.5148; 317982.25359338
464.19; 2029.3364; 320048.03051171
465.21; 2236.8418; 322325.03897852
466.22; 2464.3072; 324833.5973569
467.24; 2706.1632; 327588.35471073
468.26; 2956.9207; 330598.37239787
469.28; 3213.3543; 333869.42840906
470.30; 3475.9537; 337407.79927871
471.31; 3748.7548; 341223.86992904
472.33; 4037.1919; 345333.55704107
473.35; 4344.4122; 349755.98114866
474.37; 4667.258; 354507.04835775
475.39; 4993.5055; 359590.22144543
476.40; 5301.7388; 364987.16275802
477.42; 5564.4336; 370651.5160021
478.44; 5753.6905; 376508.52460852
479.46; 5848.0238; 382461.56046633
480.48; 5838.0973; 388404.49158371
481.49; 5729.5521; 394236.92833434
482.51; 5542.0247; 399878.47030986
483.53; 5304.7555; 405278.48253239
484.55; 5050.3232; 410419.49361352
485.57; 4808.5608; 415314.40103735
486.58; 4602.4156; 419999.46154913
487.60; 4446.5551; 424525.86279898
488.62; 4348.3405; 428952.28579392
489.64; 4309.9072; 433339.58531331
490.66; 4329.8981; 437747.2347773
491.67; 4403.942; 442230.25767965
492.69; 4523.956; 446835.44970434
493.71; 4677.2702; 451596.70890163
494.73; 4846.9209; 456530.6651869
495.74; 5014.0413; 461634.74287886
496.76; 5162.2409; 466889.68134914
497.78; 5282.7154; 472267.25764311
498.80; 5378.1406; 477741.97266588
499.82; 5463.5687; 483303.64986476
500.83; 5563.5666; 488967.12060324
501.85; 5706.2895; 494775.8770982
502.87; 5916.4256; 500798.54306643
503.89; 6209.3917; 507119.43588133
504.91; 6588.5905; 513826.33672364
505.92; 7046.2073; 520999.07172977
506.94; 7566.5576; 528701.5008125
507.96; 8130.0994; 536977.59116036
508.98; 8716.3306; 545850.43963338
510.00; 9304.8298; 555322.35488746
511.01; 9875.1216; 565374.80251122
512.03; 10407.059; 575968.73906982
513.05; 10883.389; 587047.55939128
514.07; 11294.991; 598545.37248962
515.09; 11647.396; 610401.91945359
516.10; 11965.617; 622582.40115533
517.12; 12293.834; 635096.99334747
518.14; 12687.755; 648012.58032768
519.16; 13200.049; 661449.66054681
520.18; 13862.327; 675560.91162838
521.19; 14669.343; 690493.66980976
522.21; 15571.324; 706344.60568711
523.23; 16478.325; 723118.82915102
524.25; 17276.722; 740705.78668769
525.27; 17853.848; 758880.23365852
526.28; 18123.796; 777329.47556399
527.30; 18046.823; 795700.36218909
528.32; 17636.792; 813653.85570284
529.34; 16954.99; 830913.30347956
530.36; 16093; 847295.28267993
531.37; 15150.555; 862717.89431797
532.39; 14215.255; 877188.41030763
533.41; 13349.633; 890777.76033638
534.43; 12587.963; 903591.76359832
535.45; 11941.657; 915747.85482086
536.46; 11409.514; 927362.24764537
537.48; 10988.21; 938547.77128348
538.50; 10679.276; 949418.81325414
539.52; 10490.869; 960098.06568673
540.54; 10434.843; 970720.28604902
541.55; 10521.139; 981430.35165141
542.57; 10751.969; 992375.39210177
543.59; 11117.695; 1003692.7261274
544.61; 11595.275; 1015496.2154223
545.62; 12149.192; 1027863.5691236
546.64; 12734.314; 1040826.5512137
547.66; 13300.068; 1054365.4465014
548.68; 13795.583; 1068408.7549887
549.70; 14175.494; 1082838.7966424
550.71; 14405.932; 1097503.4137149
551.73; 14469.779; 1112233.0243041
552.75; 14369.91; 1126860.9726166
553.77; 14129.155; 1141243.8422107
554.79; 13786.327; 1155277.7281793
555.80; 13388.721; 1168906.8688355
556.82; 12982.61; 1182122.6052753
557.84; 12604.047; 1194952.9808675
558.86; 12272.321; 1207445.6743825
559.88; 11987.651; 1219648.5855642
560.89; 11733.453; 1231592.7348149
561.91; 11482.23; 1243281.1495706
562.93; 11203.189; 1254685.5130378
563.95; 10869.548; 1265750.2436572
564.97; 10463.887; 1276402.0294473
565.98; 9980.8021; 1286562.0552745
567.00; 9426.9133; 1296158.2462173
568.02; 8818.9071; 1305135.5131037
569.04; 8180.4149; 1313462.8224236
570.06; 7538.4232; 1321136.6119766
571.07; 6919.6673; 1328180.5347349
572.09; 6347.3121; 1334641.8245247
573.11; 5838.2315; 1340584.8922648
574.13; 5401.2748; 1346083.1569579
575.15; 5036.9089; 1351210.5128617
576.16; 4738.4325; 1356034.0326293
577.18; 4494.5642; 1360609.3050236
578.20; 4292.7545; 1364979.1438495
579.22; 4122.2687; 1369175.4354855
580.24; 3976.1131; 1373222.9470644
581.25; 3851.2644; 1377143.3680091
582.27; 3747.2881; 1380957.9455698
583.29; 3664.0492; 1384687.7895851
584.31; 3599.5642; 1388351.9905713
585.33; 3548.9744; 1391964.6933513
