#Wavenumber (cm^-1); Spectrum (K*cm*km*mol^-1); Integral (K*km*mol^-1)
0.00; 55.192633; 56.18371873967
1.02; 57.326768; 114.5398953051
2.04; 63.519357; 179.19986013217
3.05; 73.182365; 253.69634985273
4.07; 85.463507; 340.69451219461
5.09; 99.404958; 441.88447002064
6.11; 114.10953; 558.04305032884
7.13; 128.87782; 689.23510951689
8.14; 143.28953; 835.09766946348
9.16; 157.21746; 995.13825455629
10.18; 170.77831; 1168.9832045622
11.20; 184.23779; 1356.5293273839
12.22; 197.89501; 1557.9779085312
13.23; 211.97384; 1773.758131161
14.25; 226.54588; 2004.3720625648
15.27; 241.50215; 2250.2108284349
16.29; 256.57934; 2511.3975292507
17.31; 271.43286; 2787.7044666109
18.32; 285.73538; 3078.5707486548
19.34; 299.27104; 3383.2157511458
20.36; 311.99454; 3700.8127279037
21.38; 324.03443; 4030.6657934822
22.40; 335.63889; 4372.3317047353
23.41; 347.08441; 4725.6486592898
24.43; 358.58462; 5090.6723296108
25.45; 370.24028; 5467.5609550155
26.47; 382.05754; 5856.4790435975
27.48; 394.0341; 6257.5887560902
28.50; 406.28076; 6671.1650414991
29.52; 419.12314; 7097.8143137822
30.54; 433.12585; 7538.7177391668
31.56; 449.00369; 7995.7841179293
32.57; 467.42541; 8471.6030162269
33.59; 488.76093; 8969.1405530956
34.61; 512.85426; 9491.2040629883
35.63; 538.90806; 10039.789217163
36.65; 565.53679; 10615.481261866
37.66; 590.99279; 11217.086419149
38.68; 613.51129; 11841.614434968
39.70; 631.67756; 12484.634935742
40.72; 644.70968; 13140.921567463
41.74; 652.57667; 13805.216455548
42.75; 655.92668; 14472.921515258
43.77; 655.86183; 15140.560557463
44.79; 653.6438; 15805.941740907
45.81; 650.42975; 16468.051157558
46.83; 647.11653; 17126.787855776
47.84; 644.3227; 17782.680559772
48.86; 642.48133; 18436.698833007
49.88; 641.97442; 19090.201092631
50.90; 643.22824; 19744.979689294
51.92; 646.71148; 20403.304074068
52.93; 652.82503; 21067.851779534
53.95; 661.72442; 21741.458689215
54.97; 673.15189; 22426.698264955
55.99; 686.35917; 23125.382286136
57.01; 700.17365; 23838.128852393
58.02; 713.20775; 24564.14356356
59.04; 724.15686; 25301.304002512
60.06; 732.09478; 26046.544895939
61.08; 736.67218; 26796.445384911
62.10; 738.15592; 27547.85625608
63.11; 737.30142; 28298.39728527
64.13; 735.10782; 29046.705328937
65.15; 732.5432; 29792.402694514
66.17; 730.33153; 30535.848677762
67.19; 728.86359; 31277.800359683
68.20; 728.24289; 32019.120199545
69.22; 728.42681; 32760.627261634
70.24; 729.39145; 33503.11628012
71.26; 731.24862; 34247.495822622
72.27; 734.27183; 34994.952858535
73.29; 738.83081; 35747.050742009
74.31; 745.27208; 36505.705558849
75.33; 753.79879; 37273.040203286
76.35; 764.39321; 38051.159506517
77.36; 776.79607; 38841.904381539
78.38; 790.52676; 39646.626507979
79.40; 804.91293; 40465.993135717
80.42; 819.10658; 41299.808286771
81.44; 832.09103; 42146.841052937
82.45; 842.71263; 43004.686142598
83.47; 849.7829; 43869.728464163
84.49; 852.27894; 44737.31164373
85.51; 849.62355; 45602.191757923
86.53; 841.97186; 46459.282778373
87.54; 830.39351; 47304.58753999
88.56; 816.84418; 48136.099665041
89.58; 803.87308; 48954.407769373
90.60; 794.10167; 49762.769003025
91.62; 789.59963; 50566.547355839
92.63; 791.34039; 51372.097723237
93.65; 798.91294; 52185.356625236
94.67; 810.59583; 53010.508196772
95.69; 823.78557; 53849.086355216
96.71; 835.65723; 54699.749353138
97.72; 843.86074; 55558.763170355
98.74; 847.05117; 56421.024711113
99.76; 845.11374; 57281.314031741
100.78; 839.049; 58135.429712172
101.80; 830.58984; 58980.934323346
102.81; 821.69098; 59817.380281261
103.83; 814.0445; 60646.042459729
104.85; 808.73509; 61469.299886256
105.87; 806.08248; 62289.857062544
106.89; 805.65635; 63109.980463628
107.90; 806.4146; 63930.875730971
108.92; 806.91404; 64752.279408107
109.94; 805.5615; 65572.30625596
110.96; 800.8903; 66387.578023072
111.98; 791.84675; 67193.643846641
112.99; 778.05079; 67985.665973646
114.01; 759.96871; 68759.281330294
115.03; 738.92633; 69511.476450328
116.05; 716.9148; 70241.264778062
117.07; 696.20013; 70949.966470548
118.08; 678.82106; 71640.977022009
119.10; 666.11686; 72319.055243729
120.12; 658.43711; 72989.315811257
121.14; 655.1365; 73656.216498603
122.15; 654.86278; 74322.838548996
123.17; 656.04054; 74990.65951231
124.19; 657.38024; 75659.844228678
125.21; 658.23271; 76329.896727241
126.23; 658.67041; 77000.394782618
127.24; 659.28324; 77671.516667173
128.26; 660.78647; 78344.168778725
129.28; 663.6053; 79019.690333659
130.30; 667.5991; 79699.277409965
131.32; 672.02206; 80383.366870441
132.33; 675.71554; 81071.216135676
133.35; 677.43678; 81760.817540722
134.37; 676.18499; 82449.144682946
135.39; 671.40544; 83132.606446476
136.41; 663.01988; 83807.532072576
137.42; 651.31467; 84470.54229917
138.44; 636.77549; 85118.752274577
139.46; 619.96638; 85749.851295186
140.48; 601.50933; 86362.161831913
141.50; 582.15366; 86954.769141522
142.51; 562.86572; 87527.742152398
143.53; 544.84967; 88082.375603404
144.55; 529.43952; 88621.322190832
145.57; 517.86571; 89148.487136158
146.59; 510.9675; 89668.629997447
147.60; 508.96059; 90186.729914423
148.62; 511.35884; 90707.271148874
149.64; 517.09283; 91233.649338456
150.66; 524.79073; 91767.86365711
151.68; 533.12235; 92310.559199867
152.69; 541.08407; 92861.359437015
153.71; 548.13048; 93419.332617838
154.73; 554.12464; 93983.407593134
155.75; 559.15451; 94552.602756163
156.77; 563.31441; 95126.03251475
157.78; 566.55684; 95702.762932309
158.80; 568.68019; 96281.654828969
159.82; 569.45073; 96861.331101369
160.84; 568.79376; 97440.338600206
161.86; 566.95607; 98017.475409567
162.87; 564.55435; 98592.167373497
163.89; 562.47461; 99164.742251023
164.91; 561.65379; 99736.481572606
165.93; 562.82686; 100309.41502571
166.94; 566.3382; 100885.92287857
167.96; 572.08901; 101468.28480818
168.98; 579.63391; 102058.32711576
170.00; 588.37651; 102657.26901478
171.02; 597.77177; 103265.77487772
172.03; 607.44142; 103884.12403168
173.05; 617.14916; 104512.35524986
174.07; 626.64749; 105150.25535257
175.09; 635.47205; 105797.13848245
176.11; 642.79407; 106451.47510367
177.12; 647.4305; 107110.53141662
178.14; 648.05734; 107770.22582368
179.16; 643.59097; 108425.37365518
180.18; 633.62742; 109070.37902252
181.20; 618.78732; 109700.27780976
182.21; 600.8247; 110311.89142448
183.23; 582.42019; 110904.77005027
184.25; 566.67512; 111481.62087068
185.27; 556.42103; 112048.03347182
186.29; 553.52712; 112611.50019391
187.30; 558.40113; 113179.92844865
188.32; 569.83285; 113759.99369584
189.34; 585.23576; 114355.73844064
190.36; 601.23125; 114967.76590722
191.38; 614.42423; 115593.22325672
192.39; 622.16816; 116226.56359463
193.41; 623.12507; 116860.87802949
194.43; 617.48764; 117489.45379901
195.45; 606.82593; 118107.1764131
196.47; 593.62172; 118711.45770599
197.48; 580.62956; 119302.51354735
198.50; 570.23774; 119882.99095742
199.52; 563.98683; 120457.10520895
200.54; 562.34936; 121029.55259386
201.56; 564.79752; 121604.49209337
202.57; 570.11033; 122184.83981022
203.59; 576.81616; 122772.01377
204.61; 583.6415; 123366.13562853
205.63; 589.84726; 123966.57468746
206.65; 595.37176; 124572.63744295
207.66; 600.75499; 125184.18009771
208.68; 606.87752; 125801.9552235
209.70; 614.59494; 126427.58634829
210.72; 624.37573; 127063.17390168
211.74; 636.0493; 127710.64464293
212.75; 648.74214; 128371.03614819
213.77; 661.03004; 129043.93620028
214.79; 671.27406; 129727.2642288
215.81; 678.05433; 130417.49428088
216.82; 680.58259; 131110.29799412
217.84; 678.97414; 131801.46436494
218.86; 674.29341; 132487.8659578
219.88; 668.34857; 133168.21596206
220.90; 663.28128; 133843.40768034
221.91; 661.05851; 134516.33672213
222.93; 663.00394; 135191.24612351
223.95; 669.49662; 135872.76479244
224.97; 679.91706; 136564.89101675
225.99; 692.84847; 137270.18086202
227.00; 706.46786; 137989.3346618
228.02; 719.00982; 138721.25563081
229.04; 729.17207; 139463.52133039
230.06; 736.35887; 140213.10288066
231.08; 740.71529; 140967.11908757
232.09; 742.97212; 141723.43264743
233.11; 744.1739; 142480.96956928
234.13; 745.38576; 143239.74010454
235.15; 747.4621; 144000.62427244
236.17; 750.92242; 144765.03089465
237.18; 755.93257; 145534.53763497
238.20; 762.35543; 146310.58256095
239.22; 769.8239; 147094.23006676
240.24; 777.80454; 147886.00152117
241.26; 785.64917; 148685.75847692
242.27; 792.65834; 149492.65045853
243.29; 798.18735; 150305.17073309
244.31; 801.80735; 151121.37601858
245.33; 803.49645; 151939.30073222
246.35; 803.7978; 152757.53220338
247.36; 803.86378; 153575.83084295
248.38; 805.32204; 154395.61393158
249.40; 809.95094; 155220.10903615
250.42; 819.22269; 156054.04238234
251.44; 833.83524; 156902.8506765
252.45; 853.38131; 157771.55602703
253.47; 876.27952; 158663.5707648
254.49; 900.0211; 159579.75340784
255.51; 921.68891; 160517.99294992
256.53; 938.61711; 161473.4646645
257.54; 949.01203; 162439.51795933
258.56; 952.36524; 163408.98468084
259.58; 949.5541; 164375.58977527
260.60; 942.61981; 165335.13606161
261.61; 934.3037; 166286.21690624
262.63; 927.47795; 167230.34944198
263.65; 924.61329; 168171.56587281
264.67; 927.38729; 169115.60611728
265.69; 936.47654; 170068.89882186
266.70; 951.52008; 171037.50520534
267.72; 971.21284; 172026.15797132
268.74; 993.48931; 173037.48721501
269.76; 1015.7788; 174071.50618023
270.78; 1035.3319; 175125.4294218
271.79; 1049.6156; 176193.89285883
272.81; 1056.7438; 177269.612483
273.83; 1055.8692; 178344.44179663
274.85; 1047.4282; 179410.6784759
275.87; 1033.1349; 180462.36521912
276.88; 1015.6739; 181496.27745125
277.90; 998.12976; 182512.33047779
278.92; 983.2908; 183513.27808626
279.94; 973.02859; 184503.77919851
280.96; 967.95047; 185489.11101087
281.97; 967.44542; 186473.92870134
282.99; 970.10919; 187461.45799509
284.01; 974.39544; 188453.35050247
285.03; 979.2473; 189450.18199387
286.05; 984.46185; 190452.32167124
287.06; 990.63515; 191460.74550657
288.08; 998.69805; 192477.3770294
289.10; 1009.2219; 193504.72137533
290.12; 1021.7818; 194544.85111222
291.14; 1034.6645; 195598.09494337
292.15; 1045.0935; 196661.95499682
293.17; 1049.9477; 197730.75644892
294.19; 1046.7562; 198796.30908156
295.21; 1034.6202; 199849.50783344
296.23; 1014.7178; 200882.44680909
297.24; 990.17639; 201890.40365002
298.26; 965.32012; 202873.05787415
299.28; 944.5258; 203834.54437923
300.30; 931.06681; 204782.33021649
301.32; 926.33386; 205725.29811137
302.33; 929.68462; 206671.67693956
303.35; 938.94363; 207627.48103562
304.37; 951.33538; 208595.89940261
305.39; 964.47991; 209577.69832755
306.41; 977.06963; 210572.3130514
307.42; 988.98437; 211579.05646342
308.44; 1000.8326; 212597.8608406
309.46; 1013.1416; 213629.19527585
310.48; 1025.5641; 214673.17531004
311.49; 1036.4656; 215728.25258847
312.51; 1043.1081; 216790.09163904
313.53; 1042.4077; 217851.21772984
314.55; 1032.009; 218901.75832228
315.57; 1011.2801; 219931.19779598
316.58; 981.84412; 220930.67274005
317.60; 947.416; 221895.10134707
318.62; 912.95834; 222824.45354236
319.64; 883.40789; 223723.72465573
320.66; 862.37249; 224601.58263368
321.67; 851.20579; 225468.07340175
322.69; 848.73618; 226332.05020365
323.71; 851.70866; 227199.05286641
324.73; 855.77516; 228070.19505378
325.75; 856.71289; 228942.29180531
326.76; 851.50982; 229809.09206014
327.78; 839.03058; 230663.18898303
328.80; 820.12805; 231498.04394551
329.82; 797.23778; 232309.59759881
330.84; 773.62686; 233097.11635431
331.85; 752.53311; 233863.16258259
332.87; 736.41843; 234612.80476181
333.89; 726.49254; 235352.34281381
334.91; 722.57195; 236087.88988271
335.93; 723.25416; 236824.13140893
336.94; 726.32689; 237563.50083706
337.96; 729.30185; 238305.89864867
338.98; 729.95631; 239048.96266922
340.00; 726.77699; 239788.79028561
341.02; 719.22471; 240520.93000121
342.03; 707.77262; 241241.411988
343.05; 693.71642; 241947.58536409
344.07; 678.8048; 242638.57935692
345.09; 664.78421; 243315.30099175
346.11; 652.97716; 243980.00355852
347.12; 644.00765; 244635.57556084
348.14; 637.74604; 245284.77350892
349.16; 633.47903; 245929.62782811
350.18; 630.23955; 246571.18449545
351.20; 627.17979; 247209.6264534
352.21; 623.85985; 247844.68886149
353.23; 620.35833; 248476.18687352
354.25; 617.17851; 249104.44796741
355.27; 615.00004; 249730.49147108
356.28; 614.38116; 250355.90498092
357.30; 615.53046; 250982.48843158
358.32; 618.23427; 251611.82423571
359.34; 621.9599; 252244.95257253
360.36; 626.08309; 252882.27814062
361.37; 630.13826; 253523.73170164
362.39; 633.98376; 254169.09981621
363.41; 637.81209; 254818.36500573
364.43; 642.00224; 255471.89558471
365.45; 646.87918; 256130.39068085
366.46; 652.48645; 256794.59373357
367.48; 658.47391; 257464.89176008
368.50; 664.15582; 258140.97372538
369.52; 668.72284; 258821.70471741
370.54; 671.52537; 259505.28856895
371.55; 672.31247; 260189.67365199
372.57; 671.32474; 260873.05326965
373.59; 669.19703; 261554.26696506
374.61; 666.70382; 262232.9426864
375.63; 664.44652; 262909.32057114
376.64; 662.60865; 263583.82758877
377.66; 660.88154; 264256.57647601
378.68; 658.59624; 264926.99902632
379.70; 655.01507; 265593.77610427
380.72; 649.66973; 266255.11185485
381.73; 642.61097; 266909.26208789
382.75; 634.46615; 267555.12125237
383.77; 626.27424; 268192.64140066
384.79; 619.15421; 268822.91367117
385.81; 613.92918; 269447.86708755
386.82; 610.84753; 270069.68351545
387.84; 609.50796; 270690.13631787
388.86; 609.01983; 271310.09222274
389.88; 608.34314; 271929.35928511
390.90; 606.68677; 272546.94023572
391.91; 603.82314; 273161.60613119
392.93; 600.20873; 273772.59271699
393.95; 596.87001; 274380.18063091
394.97; 595.09597; 274985.96264745
395.99; 596.04276; 275592.70845651
397.00; 600.38044; 276203.86984024
398.02; 608.09095; 276822.88019024
399.04; 618.47043; 277452.45640489
400.06; 630.3201; 278094.0950658
401.07; 642.25244; 278747.88033117
402.09; 653.01242; 279412.61879983
403.11; 661.72217; 280086.22341274
404.13; 667.99506; 280766.21355961
405.15; 671.91519; 281450.19423193
406.16; 673.92039; 282136.21611098
407.18; 674.64844; 282822.97910921
408.20; 674.80118; 283509.89759436
409.22; 675.05641; 284197.07588858
410.24; 676.02564; 284885.24081736
411.25; 678.23261; 285575.65234806
412.27; 682.08182; 286269.98220951
413.29; 687.8006; 286970.13353934
414.31; 695.36361; 287677.98369283
415.33; 704.43227; 288395.06534443
416.34; 714.35013; 289122.24294869
417.36; 724.22362; 289859.4713452
418.38; 733.08808; 290605.72337368
419.40; 740.125; 291359.13869043
420.42; 744.87259; 292117.38684477
421.43; 747.36852; 292878.1757477
422.45; 748.18461; 293639.79539724
423.47; 748.34732; 294401.58067993
424.49; 749.17189; 295164.20534012
425.51; 752.05645; 295929.76634879
426.52; 758.27944; 296701.66210047
427.54; 768.82462; 297484.29238348
428.56; 784.23521; 298282.60999091
429.58; 804.48922; 299101.5452975
430.60; 828.89622; 299945.32587746
431.61; 856.04049; 300816.73815616
432.63; 883.81745; 301716.42617683
433.65; 909.61391; 302642.37388734
434.67; 930.65503; 303589.74055087
435.69; 944.48593; 304551.18647477
436.70; 949.49406; 305517.73045982
437.72; 945.33557; 306480.04128204
438.74; 933.12925; 307429.92659435
439.76; 915.33162; 308361.69468458
440.78; 895.29365; 309273.0649914
441.79; 876.59437; 310165.40023191
442.81; 862.31639; 311043.20110604
443.83; 854.45022; 311912.99455736
444.85; 853.58128; 312781.90346734
445.87; 858.93973; 313656.26705154
446.88; 868.80049; 314540.66846184
447.90; 881.13435; 315437.62521166
448.92; 894.34839; 316348.03327512
449.94; 907.9247; 317272.2614428
450.95; 922.77661; 318211.60820749
451.97; 941.1927; 319169.70175796
452.99; 966.33329; 320153.38734327
454.01; 1001.3699; 321172.73864388
455.03; 1048.4914; 322240.05767441
456.04; 1108.0978; 323368.05341226
457.06; 1178.508; 324567.72374234
458.08; 1256.3996; 325846.68427977
459.10; 1337.9638; 327208.67372395
460.12; 1420.4822; 328654.66330603
461.13; 1503.7925; 330185.4591632
462.15; 1591.0473; 331805.07668698
463.17; 1688.3258; 333523.71952913
464.19; 1803.0312; 335359.12748722
465.21; 1941.4716; 337335.4617961
466.22; 2106.3982; 339479.68423325
467.24; 2295.3909; 341816.29315427
468.26; 2500.7563; 344361.95512525
469.28; 2711.085; 347121.72263549
470.30; 2914.0077; 350088.05671386
471.31; 3099.2257; 353242.93476868
472.33; 3260.7962; 356562.28462095
473.35; 3397.9715; 360021.27294529
474.37; 3514.5071; 363598.88952403
475.39; 3616.9943; 367280.8336884
476.40; 3713.1404; 371060.65040247
477.42; 3810.8359; 374939.9168647
478.44; 3918.3293; 378928.60699407
479.46; 4045.1191; 383046.36373097
480.48; 4202.6211; 387324.45066102
481.49; 4403.5842; 391807.10939938
482.51; 4659.7137; 396550.49691334
483.53; 4977.8406; 401617.72379412
484.55; 5355.8729; 407069.77132877
485.57; 5780.228; 412953.79397692
486.58; 6226.1871; 419291.78379355
487.60; 6661.6661; 426073.07237817
488.62; 7053.5814; 433253.31382206
489.64; 7374.8782; 440760.62155155
490.66; 7609.8629; 448507.13360161
491.67; 7756.0034; 456402.41042429
492.69; 7821.6615; 464364.52432924
493.71; 7820.7987; 472325.75989951
494.73; 7766.8925; 480232.12128342
495.74; 7668.5886; 488038.41360062
496.76; 7528.8466; 495702.45456886
497.78; 7347.8087; 503182.20678884
498.80; 7127.9757; 510438.17841534
499.82; 6879.2118; 517440.9191304
500.83; 6621.1056; 524180.91894477
501.85; 6381.2958; 530676.80272099
502.87; 6190.095; 536978.05226801
503.89; 6073.3722; 543160.48312221
504.91; 6046.4783; 549315.53711527
505.92; 6111.6416; 555536.92451406
506.94; 6259.8558; 561909.18754507
507.96; 6476.3944; 568501.87758893
508.98; 6747.5261; 575370.56802983
510.00; 7065.4376; 582562.87857146
511.01; 7429.0722; 590125.35349832
512.03; 7840.3025; 598106.44314131
513.05; 8296.8878; 606552.31689174
514.07; 8785.201; 615495.27239557
515.09; 9276.0871; 624937.92873383
516.10; 9726.2524; 634838.83394124
517.12; 10085.614; 645105.55330924
518.14; 10308.789; 655599.4555857
519.16; 10367.243; 666152.86131584
520.18; 10258.123; 676595.18741847
521.19; 10006.751; 686781.62820701
522.21; 9661.7159; 696616.83810265
523.23; 9283.8468; 706067.39350564
524.25; 8932.2637; 715160.05249404
525.27; 8651.499; 723966.90509692
526.28; 8463.2081; 732582.08569844
527.30; 8364.4235; 741096.70786144
528.32; 8332.2457; 749578.57441833
529.34; 8333.0127; 758061.22172809
530.36; 8332.9181; 766543.77277703
531.37; 8307.0217; 774999.96244131
532.39; 8244.5003; 783392.50802093
533.41; 8149.4128; 791688.25856623
534.43; 8037.6623; 799870.25191181
535.45; 7931.7751; 807944.45664837
536.46; 7855.3493; 815940.8632274
537.48; 7828.6151; 823910.05554024
538.50; 7865.7684; 831917.0683684
539.52; 7973.964; 840034.21958042
540.54; 8153.3804; 848334.00895401
541.55; 8397.7269; 856882.5325418
542.57; 8694.8549; 865733.51961133
543.59; 9027.5433; 874923.169168
544.61; 9374.7828; 884466.29348813
545.62; 9713.8308; 894354.55407713
546.64; 10022.968; 904557.50264615
547.66; 10284.421; 915026.5993786
548.68; 10486.611; 925701.51718819
549.70; 10624.904; 936517.21075328
550.71; 10700.487; 947409.84462201
551.73; 10717.703; 958320.00387083
552.75; 10680.832; 969192.62970271
553.77; 10591.665; 979974.48800669
554.79; 10449.026; 990611.1456261
555.80; 10250.652; 1001045.8669134
556.82; 9996.8901; 1011222.2696621
557.84; 9694.7493; 1021091.1060975
558.86; 9360.4685; 1030619.6590786
559.88; 9019.0693; 1039800.6824204
560.89; 8700.3207; 1048657.2334647
561.91; 8431.8521; 1057240.4950277
562.93; 8231.3324; 1065619.6362286
563.95; 8100.2397; 1073865.3307196
564.97; 8021.507; 1082030.8786762
565.98; 7962.2776; 1090136.1336632
567.00; 7881.4486; 1098159.1082229
568.02; 7740.1301; 1106038.2267018
569.04; 7512.1212; 1113685.241971
570.06; 7191.3519; 1121005.7278414
571.07; 6794.0412; 1127921.7685962
572.09; 6354.8383; 1134390.7197603
573.11; 5917.9774; 1140414.9653923
574.13; 5525.9533; 1146040.1473526
575.15; 5208.9468; 1151342.6304162
576.16; 4977.9886; 1156410.0079551
577.18; 4823.7118; 1161320.3384492
578.20; 4720.8698; 1166125.9802265
579.22; 4637.0814; 1170846.3290078
580.24; 4543.0496; 1175470.9574742
581.25; 4421.1338; 1179971.480877
582.27; 4269.7542; 1184317.9064054
583.29; 4102.4739; 1188494.0478207
584.31; 3942.3007; 1192507.1398254
