#Wavenumber (cm^-1); Spectrum (K*cm*km*mol^-1); Integral (K*km*mol^-1)
0.00; 1.0095452; 1.0276734274216
1.02; 1.0918924; 2.1391727633684
2.04; 1.3361397; 3.4993053684809
3.05; 1.7340621; 5.2645057682755
4.07; 2.2724318; 7.5777433067323
5.09; 2.9336301; 10.564052129229
6.11; 3.6964184; 14.326846506396
7.13; 4.5370007; 18.94531739694
8.14; 5.4306467; 24.473481406221
9.16; 6.3541347; 30.941716384452
10.18; 7.2890136; 38.361617744794
11.20; 8.2252021; 46.734518582525
12.22; 9.1639064; 56.062979849588
13.23; 10.118521; 66.363197100855
14.25; 11.112342; 77.675082012307
15.27; 12.172713; 90.066378752806
16.29; 13.322448; 103.62805639653
17.31; 14.570768; 118.46046961876
18.32; 15.906826; 134.65293195476
19.34; 17.298851; 152.26241571359
20.36; 18.700643; 171.29886289831
21.38; 20.06489; 191.72405503677
22.40; 21.360186; 213.46780266601
23.41; 22.586584; 236.45997096336
24.43; 23.783984; 260.67104031
25.45; 25.028998; 286.14948022055
26.47; 26.419114; 313.04299785196
27.48; 28.047031; 341.59366540167
28.50; 29.971818; 372.10368262516
29.52; 32.195576; 404.87738927239
30.54; 34.653823; 440.1534853629
31.56; 37.22457; 478.04649160482
32.57; 39.755918; 518.51630024079
33.59; 42.106315; 561.37871192283
34.61; 44.187179; 606.35935366809
35.63; 45.995739; 653.18103069699
36.65; 47.627559; 701.663830165
37.66; 49.262943; 751.81138000596
38.68; 51.128127; 803.85760736593
39.70; 53.439167; 858.25637287509
40.72; 56.341686; 915.609778066
41.74; 59.861803; 976.54650995941
42.75; 63.881704; 1041.5753284074
43.77; 68.147994; 1110.9470451642
44.79; 72.313124; 1184.5586850925
45.81; 76.002051; 1261.9254931228
46.83; 78.889612; 1342.2317134764
47.84; 80.77094; 1424.4530454645
48.86; 81.608266; 1507.526738989
49.88; 81.542656; 1590.5336438881
50.90; 80.867375; 1672.8531425291
51.92; 79.968598; 1754.2577249157
52.93; 79.246924; 1834.9276736125
53.95; 79.037676; 1915.3846170303
54.97; 79.548111; 1996.3611618757
55.99; 80.825454; 2078.6379858854
57.01; 82.762151; 2162.886284037
58.02; 85.135751; 2249.5508045824
59.04; 87.672452; 2338.7975776663
60.06; 90.117745; 2430.5335538029
61.08; 92.295979; 2524.4868774205
62.10; 94.143668; 2620.3210688713
63.11; 95.708375; 2717.748064262
64.13; 97.114438; 2816.6063711228
65.15; 98.506439; 2916.8816749149
66.17; 99.988361; 3018.6655114015
67.19; 101.57862; 3122.0681619879
68.20; 103.19724; 3227.1184976516
69.22; 104.69185; 3333.6902861142
70.24; 105.89624; 3441.4880850381
71.26; 106.70274; 3550.1068649693
72.27; 107.12259; 3659.1530394517
73.29; 107.30922; 3768.3891939802
74.31; 107.52989; 3877.8499832772
75.33; 108.0885; 3987.8794116365
76.35; 109.22082; 4099.061493035
77.36; 110.99697; 4212.051617487
78.38; 113.2679; 4327.3534563006
79.40; 115.68149; 4445.1122216486
80.42; 117.77147; 4564.9985009389
81.44; 119.09678; 4686.2338858864
82.45; 119.38817; 4807.7658923018
83.47; 118.65269; 4928.5492060152
84.49; 117.1971; 5047.8508008517
85.51; 115.5571; 5165.4829432132
86.53; 114.35059; 5281.8869134483
87.54; 114.1005; 5398.0363038101
88.56; 115.08387; 5515.1867213725
89.58; 117.2563; 5634.5485722707
90.60; 120.27552; 5756.9838617018
91.62; 123.61468; 5882.8182689815
92.63; 126.72616; 6011.8200332531
93.65; 129.20185; 6143.3419447149
94.67; 130.87941; 6276.5715325645
95.69; 131.86514; 6410.80455909
96.71; 132.47342; 6545.6567861439
97.72; 133.10911; 6681.1561203693
98.74; 134.13502; 6817.6997814925
99.76; 135.76543; 6955.9031341404
100.78; 138.01321; 7096.3946244837
101.80; 140.69715; 7239.6182503519
102.81; 143.49794; 7385.6929617999
103.83; 146.03998; 7534.3553614955
104.85; 147.9754; 7684.9879309213
105.87; 149.05268; 7836.7171294474
106.89; 149.161; 7988.5565956486
107.90; 148.34789; 8139.5683481927
108.92; 146.81087; 8289.0154738311
109.94; 144.86388; 8436.4806562878
110.96; 142.88011; 8581.9264475692
111.98; 141.21619; 8725.6784334066
112.99; 140.12989; 8868.3246182802
114.01; 139.71051; 9010.5438909239
115.03; 139.84417; 9152.8992206595
116.05; 140.23195; 9295.649298988
117.07; 140.46531; 9438.6369187189
118.08; 140.14465; 9581.2981238078
119.10; 139.0101; 9722.8044109629
120.12; 137.0444; 9862.309697783
121.14; 134.51268; 9999.2378038006
122.15; 131.92132; 10133.528011497
123.17; 129.90291; 10265.763572869
124.19; 129.05859; 10397.139650289
125.21; 129.80273; 10529.273227077
126.23; 132.2548; 10663.90290742
127.24; 136.20779; 10802.556564873
128.26; 141.17885; 10946.270544535
129.28; 146.52366; 11095.425304039
130.30; 151.5797; 11249.726895194
131.32; 155.79952; 11408.324086133
132.33; 158.84305; 11570.019461472
133.35; 160.61367; 11733.51725099
134.37; 161.23959; 11897.652198988
135.39; 161.01463; 12061.558143322
136.41; 160.31804; 12224.754994912
137.42; 159.53223; 12387.151916788
138.44; 158.97238; 12548.978934682
139.46; 158.83724; 12710.668395399
140.48; 159.18604; 12872.712919418
141.50; 159.94395; 13035.528955478
142.51; 160.9356; 13199.354452789
143.53; 161.94144; 13364.203852259
144.55; 162.76538; 13529.891988972
145.57; 163.29681; 13696.121093435
146.59; 163.54775; 13862.605649802
147.60; 163.65062; 14029.194920459
148.62; 163.81287; 14195.949348998
149.64; 164.24018; 14363.138760096
150.66; 165.05308; 14531.155672017
151.68; 166.22781; 14700.368414239
152.69; 167.58677; 14870.964517101
153.71; 168.84746; 15042.843946558
154.73; 169.71696; 15215.608487694
155.75; 169.9996; 15388.660745445
156.77; 169.6774; 15561.385011744
157.78; 168.92996; 15733.348425495
158.80; 168.08202; 15904.448668506
159.82; 167.49419; 16074.950523297
160.84; 167.43642; 16245.393577578
161.86; 167.99255; 16416.402745508
162.87; 169.03475; 16588.472823881
163.89; 170.28102; 16761.811553502
164.91; 171.41624; 16936.305889567
165.93; 172.23108; 17111.629696167
166.94; 172.72397; 17287.455242216
167.96; 173.12353; 17463.687529542
168.98; 173.81846; 17640.627222581
170.00; 175.21729; 17818.990862507
171.02; 177.58821; 17999.767992568
172.03; 180.93741; 18183.954470811
173.05; 184.97081; 18372.246771651
174.07; 189.15294; 18564.796306407
175.09; 192.84191; 18761.101049091
176.11; 195.45275; 18960.063515487
177.12; 196.59511; 19160.188856851
178.14; 196.1447; 19359.855700632
179.16; 194.2361; 19557.579669733
180.18; 191.19417; 19752.207081279
181.20; 187.44062; 19943.013546526
182.21; 183.41417; 20129.721251898
183.23; 179.5277; 20312.472699026
184.25; 176.16292; 20491.79895367
185.27; 173.68218; 20668.599914909
186.29; 172.42912; 20844.125316308
187.30; 172.69769; 21019.924113936
188.32; 174.66795; 21197.728553221
189.34; 178.3292; 21379.259984742
190.36; 183.4246; 21565.978309198
191.38; 189.45051; 21758.830756818
192.39; 195.72778; 21958.073189362
193.41; 201.53693; 22163.22908639
194.43; 206.28527; 22373.218587195
195.45; 209.6592; 22586.642604715
196.47; 211.71626; 22802.160618798
197.48; 212.88688; 23018.870276023
198.50; 213.88084; 23236.591738088
199.52; 215.51927; 23455.981051041
200.54; 218.53304; 23678.438250747
201.56; 223.37683; 23905.826225878
202.57; 230.10481; 24140.062991961
203.59; 238.33937; 24382.682188832
204.61; 247.34341; 24634.467106336
205.63; 256.18231; 24895.249638217
206.65; 263.94014; 25163.929309965
207.66; 269.93923; 25438.715793759
208.68; 273.90801; 25717.542327728
209.70; 276.05182; 25998.551163305
210.72; 277.00391; 26280.529186279
211.74; 277.66603; 26563.181224577
212.75; 278.97988; 26847.170701325
213.77; 281.69311; 27133.922135331
214.79; 286.18748; 27425.248643271
215.81; 292.41833; 27722.917886339
216.82; 299.97959; 28028.284166384
217.84; 308.26692; 28342.086584183
218.86; 316.67911; 28664.45225072
219.88; 324.7866; 28995.070998466
220.90; 332.41027; 29333.450312088
221.91; 339.58925; 29679.137509964
222.93; 346.45921; 30031.818034196
223.95; 353.09602; 30391.254548179
224.97; 359.39052; 30757.098591733
225.99; 365.00499; 31128.657923424
227.00; 369.42677; 31504.718436108
228.02; 372.09469; 31883.494771395
229.04; 372.5459; 32262.730424285
230.06; 370.52576; 32639.909658851
231.08; 366.02247; 33012.504739732
232.09; 359.22314; 33378.178393638
233.11; 350.42207; 33734.892938423
234.13; 339.93167; 34080.928711679
235.15; 328.04212; 34414.861437056
236.17; 315.05038; 34735.569131858
237.18; 301.34338; 35042.323689355
238.20; 287.48984; 35334.9759444
239.22; 274.28397; 35614.185192179
240.24; 262.69756; 35881.599968058
241.26; 253.73099; 36139.887167813
242.27; 248.19514; 36392.539111181
243.29; 246.4891; 36643.454381839
244.31; 248.45038; 36896.366145977
245.33; 253.33817; 37154.253470261
246.35; 259.97182; 37418.893560036
247.36; 266.99719; 37690.68517402
248.38; 273.21063; 37968.801806574
249.40; 277.84759; 38251.638667256
250.42; 280.74946; 38537.42949884
251.44; 282.35649; 38824.856221818
252.45; 283.52681; 39113.474280604
253.47; 285.23473; 39403.830924664
254.49; 288.23975; 39697.246548002
255.51; 292.82704; 39995.33183765
256.53; 298.69768; 40299.393189035
257.54; 305.03907; 40609.909796339
258.56; 310.74806; 40926.237909183
259.58; 314.73106; 41246.620542354
260.60; 316.18279; 41568.480975186
261.61; 314.75725; 41888.890272758
262.63; 310.58577; 42205.053185479
263.65; 304.15327; 42514.668088855
264.67; 296.0938; 42816.078803938
265.69; 286.9915; 43108.223767353
266.70; 277.26369; 43390.466236216
267.72; 267.16374; 43662.427390313
268.74; 256.88792; 43923.928203452
269.76; 246.72532; 44175.083928818
270.78; 237.17126; 44416.514039951
271.79; 228.94017; 44649.565248905
272.81; 222.85667; 44876.423724418
273.83; 219.65626; 45100.024319348
274.85; 219.76608; 45323.736703338
275.87; 223.14775; 45550.891481048
276.88; 229.2622; 45784.270509319
277.90; 237.17231; 46025.701687935
278.92; 245.7511; 46275.865702721
279.94; 253.93085; 46534.356352302
280.96; 260.92269; 46799.964387739
281.97; 266.3559; 47071.103197537
282.99; 270.31963; 47346.276918288
284.01; 273.32; 47624.50488315
285.03; 276.1813; 47905.645532082
286.05; 279.91818; 48190.590164526
287.06; 285.59338; 48481.311906149
288.08; 294.166; 48780.760204399
289.10; 306.33693; 49092.59797767
290.12; 322.41225; 49420.799730596
291.14; 342.22242; 49769.167382413
292.15; 365.14002; 50140.864163155
293.17; 390.22083; 50538.092130921
294.19; 416.45171; 50962.022003375
295.21; 443.03801; 51413.015575095
296.23; 469.62662; 51891.075211335
297.24; 496.36037; 52396.3486445
298.26; 523.70452; 52929.457243321
299.28; 552.06783; 53491.438474186
300.30; 581.3286; 54083.205898937
301.32; 610.43575; 54704.603155382
302.33; 637.2564; 55353.302670769
303.35; 658.77547; 56023.907675258
304.37; 671.64013; 56707.608347965
305.39; 672.91889; 57392.610741032
306.41; 660.86049; 58065.338202779
307.42; 635.42313; 58712.171525867
308.44; 598.40904; 59321.32610547
309.46; 553.16065; 59884.419774534
310.48; 503.90888; 60397.3772719
311.49; 454.96441; 60860.51141365
312.51; 409.97448; 61277.847739242
313.53; 371.42518; 61655.942546425
314.55; 340.47304; 62002.529404038
315.57; 317.0791; 62325.302248403
316.58; 300.33616; 62631.031494871
317.60; 288.84898; 62925.067290265
318.62; 281.05341; 63211.167533356
319.64; 275.42056; 63491.533776511
320.66; 270.5576; 63766.94973458
321.67; 265.25712; 64036.97003608
322.69; 258.54966; 64300.162431922
323.71; 249.78426; 64554.432033814
324.73; 238.72024; 64797.438940486
325.75; 225.58318; 65027.072887527
326.76; 211.03642; 65241.898859763
327.78; 196.04651; 65441.465748312
328.80; 181.66444; 65626.39230807
329.82; 168.78262; 65798.205729869
330.84; 157.94239; 65958.984272353
331.85; 149.25106; 66110.915407658
332.87; 142.42758; 66255.900542962
333.89; 136.95012; 66395.309852059
334.91; 132.24467; 66529.929216876
335.93; 127.84717; 66660.072119756
336.94; 123.49046; 66785.780082379
337.96; 119.10394; 66907.022752409
338.98; 114.74948; 67023.832772162
340.00; 110.53778; 67136.355458852
341.02; 106.56722; 67244.83628944
342.03; 102.90694; 67349.591111272
343.05; 99.617824; 67450.997757368
344.07; 96.784643; 67549.520347604
345.09; 94.527926; 67645.745697166
346.11; 92.977393; 67740.392670659
347.12; 92.21173; 67834.260233092
348.14; 92.190794; 67928.106483366
349.16; 92.715084; 68022.486437848
350.18; 93.439232; 68117.603543686
351.20; 93.944706; 68213.23520036
352.21; 93.851616; 68308.772096025
353.23; 92.9316; 68403.372454656
354.25; 91.180991; 68496.190769316
355.27; 88.826976; 68586.612798029
356.28; 86.263389; 68674.425205584
357.30; 83.937515; 68759.869973998
358.32; 82.225155; 68843.571633414
359.34; 81.332973; 68926.365090259
360.36; 81.255366; 69009.079546571
361.37; 81.793376; 69092.341674051
362.39; 82.623497; 69176.448828829
363.41; 83.391249; 69261.337522163
364.43; 83.801321; 69346.643650769
365.45; 83.681859; 69431.828172173
366.46; 83.011281; 69516.330073907
367.48; 81.907222; 69599.708091578
368.50; 80.585677; 69681.740832884
369.52; 79.302932; 69762.467795201
370.54; 78.294177; 69842.167888345
371.55; 77.721813; 69921.285340446
372.57; 77.644189; 70000.323773971
373.59; 78.011513; 70079.736127941
374.61; 78.689812; 70159.838960877
375.63; 79.506337; 70240.772980676
376.64; 80.302874; 70322.517840808
377.66; 80.979746; 70404.951728273
378.68; 81.51557; 70487.931060807
379.70; 81.956474; 70571.359214468
380.72; 82.380989; 70655.219506703
381.73; 82.857985; 70739.565360425
382.75; 83.419402; 70824.482712441
383.77; 84.063836; 70910.056069647
384.79; 84.792501; 70996.371177085
385.81; 85.661633; 71083.571023388
386.82; 86.8232; 71171.953294167
387.84; 88.525943; 71262.06888408
388.86; 91.063044; 71354.767133633
389.88; 94.676399; 71451.143621962
390.90; 99.450478; 71552.379917135
391.91; 105.23993; 71659.509629315
392.93; 111.66754; 71773.182368477
393.95; 118.20394; 71893.50887981
394.97; 124.30748; 72020.048533889
395.99; 129.57554; 72151.950841909
397.00; 133.85069; 72288.205064956
398.02; 137.24126; 72427.910744455
399.04; 140.05021; 72570.475810158
400.06; 142.64452; 72715.681771411
401.07; 145.32251; 72863.613816713
402.09; 148.23602; 73014.511684561
403.11; 151.39803; 73168.628348423
404.13; 154.76548; 73326.172929729
405.15; 158.34977; 73487.366160728
406.16; 162.2933; 73652.573732311
407.18; 166.86579; 73822.435908376
408.20; 172.37444; 73997.905653631
409.22; 179.02792; 74180.148350467
410.24; 186.82398; 74370.327098863
411.25; 195.52697; 74569.365113153
412.27; 204.76363; 74777.805649146
413.29; 214.20809; 74995.860238499
414.31; 223.77561; 75223.654150706
415.33; 233.72521; 75461.576330891
416.34; 244.59693; 75710.56544834
417.36; 256.97379; 75972.153674014
418.38; 271.13751; 76248.159954572
419.40; 286.74649; 76540.055505728
420.42; 302.67741; 76848.168044383
421.43; 317.12684; 77170.989487421
422.45; 327.98039; 77504.859372084
423.47; 333.35552; 77844.200908599
424.49; 332.1507; 78182.315987456
425.51; 324.41655; 78512.558040488
426.52; 311.41485; 78829.56492177
427.54; 295.33072; 79130.198854454
428.56; 278.71805; 79413.921799547
429.58; 263.84581; 79682.505445683
430.60; 252.14391; 79939.177070536
431.61; 243.91091; 80187.467847202
432.63; 238.35781; 80430.105810725
433.65; 233.95475; 80668.261647479
434.67; 228.95663; 80901.329619841
435.69; 221.94018; 81127.255150128
436.70; 212.19671; 81343.262240354
437.72; 199.88403; 81546.735558022
438.74; 185.92257; 81735.996708818
439.76; 171.69613; 81910.775961115
440.78; 158.66534; 82072.290427232
441.79; 148.00987; 82222.958088954
442.81; 140.38949; 82365.868526656
443.83; 135.86614; 82504.17439404
444.85; 133.97901; 82640.559247
445.87; 133.92532; 82776.889446861
446.88; 134.78171; 82914.091412464
447.90; 135.70406; 83052.232288548
448.92; 136.06298; 83190.738533984
449.94; 135.49901; 83328.670678544
450.95; 133.90696; 83464.982184356
451.97; 131.37633; 83598.71761727
452.99; 128.11996; 83729.138202876
454.01; 124.41716; 83855.789498726
455.03; 120.58334; 83978.538136155
456.04; 116.96167; 84097.600072959
457.06; 113.92005; 84213.565763852
458.08; 111.83335; 84327.407283594
459.10; 111.03826; 84440.439441089
460.12; 111.76285; 84554.209202355
461.13; 114.04959; 84670.306767049
462.15; 117.7009; 84790.121202141
463.17; 122.27483; 84914.591704451
464.19; 127.14463; 85044.019447883
465.21; 131.61357; 85177.996385265
466.22; 135.05541; 85315.476963875
467.24; 137.03874; 85454.976484298
468.26; 137.39781; 85594.841522724
469.28; 136.23067; 85733.51846593
470.30; 133.83189; 85869.753552592
471.31; 130.59024; 86002.688781075
472.33; 126.89235; 86131.859718621
473.35; 123.06671; 86257.136316795
474.37; 119.38201; 86378.66204765
475.39; 116.08836; 86496.834986631
476.40; 113.47057; 86612.343134628
477.42; 111.87779; 86726.229893136
478.44; 111.70479; 86839.940547966
479.46; 113.32236; 86955.297821227
480.48; 116.97665; 87074.375005826
481.49; 122.69183; 87199.269999052
482.51; 130.21017; 87331.818331285
483.53; 138.99057; 87473.304731722
484.55; 148.26702; 87624.234161952
485.57; 157.15043; 87784.206521877
486.58; 164.7481; 87951.91297674
487.60; 170.27594; 88125.246537844
488.62; 173.14687; 88301.502578133
489.64; 173.02847; 88477.638095526
490.66; 169.87001; 88650.558432216
491.67; 163.90014; 88817.401706795
492.69; 155.59556; 88975.791274298
493.71; 145.61983; 89124.025976685
494.73; 134.7355; 89261.180902003
495.74; 123.69993; 89387.102091079
496.76; 113.16381; 89502.297966054
497.78; 103.59562; 89607.753835341
498.80; 95.250999; 89704.715242378
499.82; 88.193581; 89794.492501777
500.83; 82.356735; 89878.328103773
501.85; 77.62155; 89957.343492406
502.87; 73.881261; 90032.551427723
503.89; 71.069373; 90104.896982274
504.91; 69.145246; 90175.283859206
505.92; 68.049891; 90244.555711743
506.94; 67.657956; 90313.428591188
507.96; 67.753483; 90382.398712749
508.98; 68.046278; 90451.666887241
510.00; 68.227548; 90521.119587324
511.01; 68.045774; 90590.387249311
512.03; 67.37429; 90658.971369595
513.05; 66.244563; 90726.405475799
514.07; 64.832239; 90792.401897054
515.09; 63.400853; 90856.941229195
516.10; 62.223139; 90920.281699345
517.12; 61.506452; 90982.892613439
518.14; 61.345042; 91045.339219051
519.16; 61.710362; 91108.157704454
520.18; 62.476578; 91171.756165081
521.19; 63.467514; 91236.363355871
522.21; 64.506963; 91302.028661107
523.23; 65.457031; 91368.661094388
524.25; 66.236529; 91436.08702239
525.27; 66.819794; 91504.106689171
526.28; 67.222404; 91572.536195397
527.30; 67.482401; 91641.230367406
528.32; 67.644127; 91710.089169916
529.34; 67.748099; 91779.053810804
530.36; 67.826573; 91848.098335592
531.37; 67.902166; 91917.219810092
532.39; 67.986697; 91986.427333588
533.41; 68.079172; 92055.728992801
534.43; 68.164251; 92125.117258597
535.45; 68.21444; 92194.556615008
536.46; 68.199251; 92263.980510024
537.48; 68.102184; 92333.305594985
538.50; 67.942171; 92402.467793074
539.52; 67.791719; 92471.476837311
540.54; 67.781774; 92540.475758586
541.55; 68.085297; 92609.783652423
542.57; 68.878219; 92679.898706936
543.59; 70.286131; 92751.446955181
544.61; 72.333824; 92825.079666869
545.62; 74.918318; 92901.343281444
546.64; 77.821056; 92980.56175815
547.66; 80.761954; 93062.773942802
548.68; 83.481165; 93147.754165985
549.70; 85.820814; 93235.116051242
550.71; 87.77533; 93324.467549845
551.73; 89.488389; 93415.562868748
552.75; 91.194554; 93508.394989402
553.77; 93.126504; 93603.193751651
554.79; 95.424493; 93700.331767956
555.80; 98.085728; 93800.178806594
556.82; 100.97634; 93902.968367602
557.84; 103.90342; 94008.737561915
558.86; 106.71974; 94117.37364843
559.88; 109.42074; 94228.759241846
560.89; 112.19672; 94342.970659992
561.91; 115.42207; 94460.465342759
562.93; 119.58808; 94582.200850379
563.95; 125.2051; 94709.654238784
564.97; 132.70583; 94844.743050435
565.98; 142.37368; 94989.673314832
567.00; 154.30375; 95146.747877403
568.02; 168.39044; 95318.16207859
569.04; 184.33089; 95505.80296801
570.06; 201.63974; 95711.063525414
571.07; 219.68093; 95934.689234579
572.09; 237.72768; 96176.685756188
573.11; 255.05583; 96436.321587046
574.13; 271.05868; 96712.247631239
575.15; 285.35312; 97002.724797222
576.16; 297.83891; 97305.911955379
577.18; 308.68439; 97620.139342306
578.20; 318.2407; 97944.09463731
579.22; 326.92033; 98276.885422725
580.24; 335.09632; 98617.999013665
581.25; 343.07144; 98967.230939135
582.27; 351.13193; 99324.668092772
583.29; 359.65225; 99690.778563414
584.31; 369.1819; 100066.58980297
