#Wavenumber (cm^-1);  Spectrum at 400.00 K (cm*km*mol^-1);  Integral (km*mol^-1)
0.00; 0.0018335831; 0.0018665084644166
1.02; 0.0019000392; 0.0038006663784508
2.04; 0.0020916409; 0.0059298665826897
3.05; 0.0023871792; 0.0083599119673282
4.07; 0.002757634; 0.011167064408599
5.09; 0.0031736293; 0.014397682083242
6.11; 0.0036124578; 0.018075008242357
7.13; 0.0040626035; 0.022210563303109
8.14; 0.0045245168; 0.026816326155979
9.16; 0.0050076131; 0.031913860178338
10.18; 0.0055246692; 0.037537735025464
11.20; 0.0060855967; 0.043732609830815
12.22; 0.0066927144; 0.050545504272406
13.23; 0.0073390813; 0.05801637236402
14.25; 0.0080103686; 0.066170581985645
15.27; 0.008689512; 0.075016130217323
16.29; 0.0093624034; 0.084546652881651
17.31; 0.010022493; 0.094749118304939
18.32; 0.010672511; 0.10561327425691
19.34; 0.011322492; 0.11713908269455
20.36; 0.011984562; 0.1293388492418
21.38; 0.012666129; 0.14223242237666
22.40; 0.013363795; 0.15583618856507
23.41; 0.014060205; 0.17014887080445
24.43; 0.014725305; 0.18513859554545
25.45; 0.015322083; 0.20073581498496
26.47; 0.015815543; 0.21683535503358
27.48; 0.016182506; 0.23330844744532
28.50; 0.016419497; 0.25002278667324
29.52; 0.016546347; 0.26686625404612
30.54; 0.016604273; 0.28376868716928
31.56; 0.016648683; 0.30071632765205
32.57; 0.016738405; 0.31775530186672
33.59; 0.016924; 0.33498320347973
34.61; 0.017238058; 0.35253080222378
35.63; 0.017689839; 0.3705382945791
36.65; 0.018265423; 0.38913170749964
37.66; 0.018933095; 0.40840478116925
38.68; 0.019652342; 0.42841001740881
39.70; 0.02038402; 0.44916007057329
40.72; 0.021099027; 0.47063796952237
41.74; 0.021783367; 0.49281249731047
42.75; 0.022438531; 0.5156539531883
43.77; 0.023077366; 0.53914571615041
44.79; 0.023716823; 0.56328841886449
45.81; 0.024369706; 0.58809572759793
46.83; 0.025037795; 0.61358312216913
47.84; 0.02570829; 0.63975305235887
48.86; 0.026354599; 0.66658089651183
49.88; 0.02694131; 0.69400598791995
50.90; 0.027432068; 0.72193064971012
51.92; 0.027798242; 0.75022806054457
52.93; 0.028026153; 0.77875747459178
53.95; 0.028121085; 0.80738352561167
54.97; 0.028107352; 0.8359955966745
55.99; 0.028024893; 0.86452372814506
57.01; 0.027923861; 0.8929490139562
58.02; 0.027858986; 0.92130825985416
59.04; 0.027885064; 0.94969405161281
60.06; 0.02805388; 0.97825169068256
61.08; 0.028411698; 1.00717357295
62.10; 0.028995763; 1.036690008603
63.11; 0.029828547; 1.0670541819267
64.13; 0.030909753; 1.098518976393
65.15; 0.032208005; 1.1313053356305
66.17; 0.033655731; 1.1655654176946
67.19; 0.035151181; 1.2013478027765
68.20; 0.036570138; 1.2385746255737
69.22; 0.037786901; 1.2770400602637
70.24; 0.038700385; 1.3164353818858
71.26; 0.039258306; 1.3563986428374
72.27; 0.039471626; 1.3965790543901
73.29; 0.039413601; 1.4367003997461
74.31; 0.03920241; 1.4766067615892
75.33; 0.038971931; 1.516278505448
76.35; 0.038839688; 1.555815631643
77.36; 0.038882339; 1.5953961746942
78.38; 0.039126575; 1.63522533923
79.40; 0.039557629; 1.6754932983931
80.42; 0.040140856; 1.7163549575349
81.44; 0.040846716; 1.7579351515002
82.45; 0.041668188; 1.8003515692871
83.47; 0.042622844; 1.8437397855865
84.49; 0.043738371; 1.8882635603324
85.51; 0.045027699; 1.9340998145957
86.53; 0.046464888; 1.9813990657881
87.54; 0.0479735; 2.0302340184074
88.56; 0.049434749; 2.0805564600692
89.58; 0.050715126; 2.1321822695983
90.60; 0.051705221; 2.1848159536662
91.62; 0.052356573; 2.238112685296
92.63; 0.052703302; 2.2917623729668
93.65; 0.052860335; 2.3455719128873
94.67; 0.052997944; 2.3995215325241
95.69; 0.05330028; 2.453778918065
96.71; 0.053920379; 2.5086675369651
97.72; 0.054944353; 2.564598517355
98.74; 0.056373471; 2.6219842783876
99.76; 0.058126439; 2.6811544846436
100.78; 0.060058239; 2.7422911802569
101.80; 0.061988367; 2.8053926629834
102.81; 0.063730997; 2.870268068101
103.83; 0.065121794; 2.9365592445911
104.85; 0.066038974; 3.0037840704315
105.87; 0.066418172; 3.0713949036651
106.89; 0.066260907; 3.1388456474381
107.90; 0.065635401; 3.2056596530399
108.92; 0.064667645; 3.2714885249895
109.94; 0.063521228; 3.3361503939918
110.96; 0.062367204; 3.3996375160672
111.98; 0.061349324; 3.4620884810185
112.99; 0.060553493; 3.5237293235182
114.01; 0.059991193; 3.5847977691695
115.03; 0.059603768; 3.645471833252
116.05; 0.059288113; 3.7058245737353
117.07; 0.058936776; 3.7658196680167
118.08; 0.058479592; 3.825349369225
119.10; 0.057912418; 3.8843017116305
120.12; 0.057302373; 3.9426330545673
121.14; 0.056767113; 4.0004195260836
122.15; 0.056435075; 4.0578679970896
123.17; 0.056400751; 4.1152815279736
124.19; 0.056691016; 4.1729905356677
125.21; 0.057254473; 4.2312731188053
126.23; 0.057977285; 4.2902914933361
127.24; 0.058719226; 4.3500651316565
128.26; 0.059356586; 4.4104875752966
129.28; 0.059816647; 4.4713783403495
130.30; 0.060092353; 4.5325497623464
131.32; 0.060233809; 4.5938651802088
132.33; 0.060321995; 4.655270367627
133.35; 0.060436302; 4.71679191491
134.37; 0.060628769; 4.7785093857166
135.39; 0.06091412; 4.8405173315135
136.41; 0.061277584; 4.9028952679497
137.42; 0.061695047; 4.9656981639579
138.44; 0.062155251; 5.0289695271416
139.46; 0.062673301; 5.0927682431553
140.48; 0.06328866; 5.157193368491
141.50; 0.064047331; 5.2223907881172
142.51; 0.064974558; 5.2885320839921
143.53; 0.066048539; 5.3557666469166
144.55; 0.067185956; 5.4241590512241
145.57; 0.068246513; 5.4936310563862
146.59; 0.06905761; 5.5639287231842
147.60; 0.069453693; 5.63462958583
148.62; 0.069319923; 5.7051942759522
149.64; 0.068627948; 5.7750545659096
150.66; 0.067453214; 5.8437190269708
151.68; 0.06596774; 5.91087133938
152.69; 0.064408495; 5.9764364078557
153.71; 0.063027708; 6.040595894665
154.73; 0.062036273; 6.1037461438634
155.75; 0.061553706; 6.1664051608143
156.77; 0.061577271; 6.2290881651673
157.78; 0.061979015; 6.2921801275143
158.80; 0.062533177; 6.3558362033939
159.82; 0.062969043; 6.4199359723341
160.84; 0.06303756; 6.48410548818
161.86; 0.062575641; 6.5478047908962
162.87; 0.061551547; 6.6104616101818
163.89; 0.060078551; 6.6716189821448
164.91; 0.058391744; 6.7310592583008
165.93; 0.056792464; 6.7888715357175
166.94; 0.055573787; 6.8454432531292
167.96; 0.054946313; 6.9013762291664
168.98; 0.054983917; 6.9573474843411
170.00; 0.055604117; 7.013950076087
171.02; 0.056588276; 7.0715544990312
172.03; 0.057635871; 7.13022532824
173.05; 0.058437738; 7.1897124237787
174.07; 0.058748378; 7.2495157377442
175.09; 0.058438448; 7.3090035560494
176.11; 0.057515022; 7.3675513670157
177.12; 0.0561069; 7.42466577046
178.14; 0.054422041; 7.4800650598189
179.16; 0.052691202; 7.533702429505
180.18; 0.051114092; 7.5857343696083
181.20; 0.049821651; 7.636450659969
182.21; 0.048861733; 7.6861897955163
183.23; 0.04820793; 7.7352633879913
184.25; 0.047784873; 7.7839063262996
185.27; 0.047499971; 7.832259247283
186.29; 0.047271642; 7.8803797390444
187.30; 0.047047025; 7.9282715803137
188.32; 0.04680659; 7.9759186691055
189.34; 0.04655726; 8.0233119505663
190.36; 0.046318552; 8.0704622381406
191.38; 0.046107264; 8.1173974437331
192.39; 0.045925558; 8.1641476799732
193.41; 0.045755564; 8.2107248698429
194.43; 0.045561492; 8.2571045024553
195.45; 0.045298255; 8.3032161708343
196.47; 0.044924133; 8.3489469997195
197.48; 0.044414106; 8.3941586432235
198.50; 0.043770283; 8.4387149029614
199.52; 0.043026427; 8.4825139485077
200.54; 0.042244847; 8.5255173801529
201.56; 0.04150587; 8.5677685644953
202.57; 0.040892136; 8.6093949944465
203.59; 0.04047172; 8.6505934589582
204.61; 0.040284654; 8.6916014987904
205.63; 0.040336712; 8.7326625309359
206.65; 0.040602181; 8.7739937988333
207.66; 0.041034582; 8.8157652327489
208.68; 0.041581745; 8.8580936543347
209.70; 0.042200329; 8.9010517679026
210.72; 0.04286533; 8.944686824351
211.74; 0.043572108; 8.9890413500491
212.75; 0.044331319; 9.0341687194512
213.77; 0.045159634; 9.0801392785494
214.79; 0.04607029; 9.1270368459344
215.81; 0.047066932; 9.1749489520077
216.82; 0.048142265; 9.2239557007649
217.84; 0.049280584; 9.2741212088969
218.86; 0.050461576; 9.3254889158612
219.88; 0.051662589; 9.3780792024075
220.90; 0.05285795; 9.4318863149796
221.91; 0.054016186; 9.4868724616971
222.93; 0.055097969; 9.5429598169342
223.95; 0.056058172; 9.6000246171501
224.97; 0.05685408; 9.6578996170483
225.99; 0.05745897; 9.7163903686061
227.00; 0.057877084; 9.7753067425551
228.02; 0.058153984; 9.8345049885382
229.04; 0.058376494; 9.8939297404772
230.06; 0.058659231; 9.9536423063612
231.08; 0.059119222; 10.013823123091
232.09; 0.059844818; 10.074742565163
233.11; 0.060868116; 10.136703680897
234.13; 0.062150156; 10.199969857348
235.15; 0.06358492; 10.264696561779
236.17; 0.065022611; 10.330886773612
237.18; 0.066306513; 10.398383942662
238.20; 0.067313153; 10.466905827257
239.22; 0.067983943; 10.536110548042
240.24; 0.068338695; 10.605676390611
241.26; 0.068466565; 10.675372398858
242.27; 0.068496679; 10.745099062008
243.29; 0.068556642; 10.814886765172
244.31; 0.068730711; 10.884851662782
245.33; 0.069029528; 10.955120743479
246.35; 0.069380057; 11.02574664761
247.36; 0.069638763; 11.096635903664
248.38; 0.069624831; 11.167510977251
249.40; 0.069164987; 11.237917949097
250.42; 0.068138671; 11.307280175563
251.44; 0.066512425; 11.374986954086
252.45; 0.064355233; 11.44049780392
253.47; 0.06183126; 11.503439358766
254.49; 0.059171757; 11.563673653678
255.51; 0.056632489; 11.621323083708
256.53; 0.054446062; 11.676746824988
257.54; 0.052779249; 11.730473823267
258.56; 0.051704082; 11.783106347583
259.58; 0.051188269; 11.835213796772
260.60; 0.051106391; 11.887237897462
261.61; 0.05126896; 11.939427486797
262.63; 0.051462837; 11.99181443375
263.65; 0.051494226; 12.044233333605
264.67; 0.051225112; 12.096378286816
265.69; 0.050595528; 12.147882350939
266.70; 0.049627374; 12.198400875944
267.72; 0.048409818; 12.247679981447
268.74; 0.04707078; 12.295596004274
269.76; 0.045742404; 12.342159797789
270.78; 0.044529847; 12.387489260789
271.79; 0.04349159; 12.431761822163
272.81; 0.042635939; 12.475163367815
273.83; 0.041933396; 12.517849755877
274.85; 0.041339547; 12.559931630699
275.87; 0.040819771; 12.601484395778
276.88; 0.040366627; 12.642575880567
277.90; 0.040003494; 12.68329771166
278.92; 0.039773216; 12.723785128958
279.94; 0.039716318; 12.764214627208
280.96; 0.039847652; 12.804777817031
281.97; 0.040141349; 12.845639978366
282.99; 0.0405312; 12.886898991336
284.01; 0.040927695; 12.92856161918
285.03; 0.041246309; 12.970548582173
286.05; 0.041436613; 13.012729266643
287.06; 0.041500688; 13.054975176043
288.08; 0.041492736; 13.097212990592
289.10; 0.041498722; 13.139456898695
290.12; 0.041602688; 13.181806640107
291.14; 0.041852091; 13.224410263232
292.15; 0.042235632; 13.267404313599
293.17; 0.042682924; 13.310853688549
294.19; 0.043087348; 13.354714749592
295.21; 0.04334446; 13.39883753976
296.23; 0.043391972; 13.443008694618
297.24; 0.043236012; 13.48702108874
298.26; 0.042952945; 13.5307453333
299.28; 0.042664793; 13.574176251006
300.30; 0.042496082; 13.617435428333
301.32; 0.042527094; 13.660726175219
302.33; 0.042760245; 13.704254259325
303.35; 0.043112052; 13.748140467769
304.37; 0.043434391; 13.792354803104
305.39; 0.043558619; 13.836695597535
306.41; 0.043348346; 13.880822343077
307.42; 0.042743742; 13.924333628388
308.44; 0.041783221; 13.966867143926
309.46; 0.040595822; 14.008191938663
310.48; 0.039367059; 14.048265906103
311.49; 0.038289089; 14.087242546621
312.51; 0.03751042; 14.125426535437
313.53; 0.037099807; 14.163192538545
314.55; 0.037034065; 14.200891618221
315.57; 0.037212025; 14.238771853712
316.58; 0.03748926; 14.276934302637
317.60; 0.037722533; 14.315334213528
318.62; 0.037810804; 14.353823980737
319.64; 0.037721249; 14.392222584136
320.66; 0.037493523; 14.430389372754
321.67; 0.037222013; 14.468279775891
322.69; 0.037022187; 14.505966764908
323.71; 0.036991749; 14.543622769305
324.73; 0.037178703; 14.581469084407
325.75; 0.037566256; 14.619709912133
326.76; 0.038079199; 14.658472893358
327.78; 0.038609477; 14.697775674373
328.80; 0.039052286; 14.737529215992
329.82; 0.039340268; 14.777575910843
330.84; 0.039463757; 14.817748312496
331.85; 0.039469675; 14.857926738861
332.87; 0.039439188; 14.898074130173
333.89; 0.039452085; 14.938234650091
334.91; 0.039551136; 14.978495999675
335.93; 0.039720216; 15.018929465392
336.94; 0.039885359; 15.059531039479
337.96; 0.039939519; 15.100187746773
338.98; 0.039782763; 15.140684882458
340.00; 0.039363312; 15.180755035294
341.02; 0.038703927; 15.220153962363
342.03; 0.037903018; 15.258737599002
343.05; 0.037109027; 15.296512986992
344.07; 0.036476483; 15.33364447316
345.09; 0.036119045; 15.370412102169
346.11; 0.036076002; 15.407135915591
347.12; 0.036303785; 15.444091601729
348.14; 0.036694773; 15.481445297284
349.16; 0.037115843; 15.519227623355
350.18; 0.037452242; 15.557352390078
351.20; 0.037641213; 15.595669521013
352.21; 0.037684385; 15.634030598381
353.23; 0.0376365; 15.672342931009
354.25; 0.037576931; 15.710594625088
355.27; 0.037576341; 15.748845718294
356.28; 0.037671631; 15.787193813314
357.30; 0.037857999; 15.825731622634
358.32; 0.038099488; 15.864515256929
359.34; 0.038352008; 15.903555945912
360.36; 0.038588243; 15.942837112427
361.37; 0.038813784; 15.982347869285
362.39; 0.039067928; 16.022117334326
363.41; 0.039409009; 16.062234005008
364.43; 0.039890156; 16.102840462442
365.45; 0.04053487; 16.144103211083
366.46; 0.041321496; 16.18616671127
367.48; 0.042182087; 16.229106255878
368.50; 0.043015874; 16.272894558927
369.52; 0.043712664; 16.317392164327
370.54; 0.044178706; 16.362364180983
371.55; 0.044357569; 16.407518272065
372.57; 0.044241017; 16.452553718626
373.59; 0.043868478; 16.497209936133
374.61; 0.043316986; 16.54130475872
375.63; 0.042685473; 16.584756727855
376.64; 0.042077478; 16.627589785053
377.66; 0.041585315; 16.669921841415
378.68; 0.041277171; 16.71194022033
379.70; 0.041187535; 16.753867353141
380.72; 0.041311054; 16.795920223223
381.73; 0.041600421; 16.838267656185
382.75; 0.041969511; 16.880990807783
383.77; 0.042303103; 16.924053540671
384.79; 0.042473531; 16.967289762524
385.81; 0.042362768; 17.010413232647
386.82; 0.041886097; 17.053051471929
387.84; 0.04101193; 17.094799846967
388.86; 0.039772145; 17.135286173916
389.88; 0.038259078; 17.174232263962
390.90; 0.036608724; 17.211498364756
391.91; 0.034973692; 17.247100073701
392.93; 0.03349274; 17.281194238036
393.95; 0.032264959; 17.31403857442
394.97; 0.031335328; 17.345936585952
395.99; 0.030694751; 17.377182518091
397.00; 0.030293021; 17.408019506725
398.02; 0.0300591; 17.438618373279
399.04; 0.029921229; 17.46907689282
400.06; 0.02982035; 17.499432721811
401.07; 0.029713759; 17.529680046505
402.09; 0.029570457; 17.559781495796
403.11; 0.029363357; 17.589672125806
404.13; 0.029064821; 17.619258859237
405.15; 0.028650205; 17.64842353188
406.16; 0.028109914; 17.677038211413
407.18; 0.027465631; 17.704997039064
408.20; 0.026783047; 17.73226102492
409.22; 0.0261732; 17.758904213421
410.24; 0.025777957; 17.785145061671
411.25; 0.025740975; 17.811348263854
412.27; 0.026171633; 17.837989856818
413.29; 0.027113215; 17.865589940019
414.31; 0.028526447; 17.894628631604
415.33; 0.030294989; 17.925467623221
416.34; 0.032252281; 17.958299053031
417.36; 0.034221692; 17.993135258553
418.38; 0.036057294; 18.029840027765
419.40; 0.037672337; 18.068188841374
420.42; 0.039047013; 18.107937015411
421.43; 0.040214494; 18.148873634584
422.45; 0.041231852; 18.190845881022
423.47; 0.042147382; 18.233750097435
424.49; 0.042976374; 18.277498191672
425.51; 0.043693515; 18.321976304205
426.52; 0.044243471; 18.367014248355
427.54; 0.044564516; 18.412379002938
428.56; 0.044615778; 18.457795939785
429.58; 0.044398176; 18.502991366902
430.60; 0.043962237; 18.547743027177
431.61; 0.04340111; 18.591923484355
432.63; 0.042832093; 18.635524706916
433.65; 0.042373017; 18.678658609327
434.67; 0.042120068; 18.721535021241
435.69; 0.042131639; 18.764423211624
436.70; 0.042419827; 18.80760476483
437.72; 0.042948893; 18.851324885081
438.74; 0.043639108; 18.895747613694
439.76; 0.044374983; 18.940919431064
440.78; 0.045018001; 18.986745813696
441.79; 0.045424365; 19.032985857125
442.81; 0.045467313; 19.079269619556
443.83; 0.045061312; 19.125140090657
444.85; 0.044182929; 19.170116405419
445.87; 0.042881923; 19.213768352492
446.88; 0.041277222; 19.255786783263
447.90; 0.039536081; 19.296032807543
448.92; 0.037839933; 19.334552226762
449.94; 0.036345276; 19.371550149831
450.95; 0.035150432; 19.40733177247
451.97; 0.034277933; 19.442225229182
452.99; 0.033677734; 19.476507709486
454.01; 0.033249876; 19.510354648309
455.03; 0.032879056; 19.543824108194
456.04; 0.03246995; 19.576877116163
457.06; 0.031972414; 19.609423653793
458.08; 0.031389671; 19.641376984299
459.10; 0.030768707; 19.672698200735
460.12; 0.030178023; 19.703418126054
461.13; 0.029681562; 19.733632675542
462.15; 0.029317918; 19.763477050747
463.17; 0.029091014; 19.793090447829
464.19; 0.028973786; 19.822584512139
465.21; 0.028921806; 19.852025662253
466.22; 0.028890949; 19.881435402
467.24; 0.028852863; 19.910806370993
468.26; 0.028803793; 19.940127389691
469.28; 0.028765351; 19.969409276086
470.30; 0.02877851; 19.998704557649
471.31; 0.028893794; 20.028117193537
472.33; 0.029160747; 20.057801575315
473.35; 0.029618851; 20.087952287741
474.37; 0.030290824; 20.118787039013
475.39; 0.031178271; 20.150525173574
476.40; 0.032259495; 20.183363947812
477.42; 0.03348951; 20.21745482415
478.44; 0.034802743; 20.252882514355
479.46; 0.036118915; 20.289650011047
480.48; 0.037352085; 20.327672821597
481.49; 0.038421902; 20.366784660135
482.51; 0.039265244; 20.40675498411
483.53; 0.039845957; 20.44731644898
484.55; 0.040160687; 20.488198295602
485.57; 0.040239613; 20.529160485545
486.58; 0.040142013; 20.570023322592
487.60; 0.039947551; 20.61068820522
488.62; 0.039744756; 20.651146651565
489.64; 0.03961835; 20.691476421901
490.66; 0.039637032; 20.731825210462
491.67; 0.039843295; 20.772383965348
492.69; 0.040246782; 20.813353452849
493.71; 0.04082259; 20.854909088168
494.73; 0.041515355; 20.897169927612
495.74; 0.042248936; 20.940177521789
496.76; 0.04294008; 20.983888670576
497.78; 0.043513056; 21.028183083848
498.80; 0.043911674; 21.072883273595
499.82; 0.044105646; 21.117780917964
500.83; 0.044090068; 21.16266270424
501.85; 0.043879309; 21.20732994723
502.87; 0.043498684; 21.251609730938
503.89; 0.042978047; 21.295359527906
504.91; 0.042350264; 21.338470268692
505.92; 0.041654788; 21.380873045813
506.94; 0.040943334; 21.422551593418
507.96; 0.040282566; 21.463557507465
508.98; 0.039748975; 21.50402024852
510.00; 0.039413991; 21.544141990649
511.01; 0.039321998; 21.584170087784
512.03; 0.039468324; 21.624347138457
513.05; 0.039786437; 21.66484801473
514.07; 0.040152039; 21.70572105825
515.09; 0.040406652; 21.746853285883
516.10; 0.040396246; 21.787974920995
517.12; 0.040014177; 21.828707626801
518.14; 0.039234743; 21.868646901848
519.16; 0.038125625; 21.907457143066
520.18; 0.036833872; 21.944952435703
521.19; 0.035548729; 21.981139508323
522.21; 0.034452414; 22.016210578658
523.23; 0.033673886; 22.050489141991
524.25; 0.03325939; 22.084345765524
525.27; 0.033167529; 22.118108878998
526.28; 0.033288374; 22.151995007711
527.30; 0.033478506; 22.18607468249
528.32; 0.033599851; 22.220277881062
529.34; 0.033550623; 22.254430967411
530.36; 0.033281051; 22.288309641399
531.37; 0.032792692; 22.321691186746
532.39; 0.032125495; 22.354393554372
533.41; 0.031339596; 22.386295910814
534.43; 0.030498511; 22.417342078824
535.45; 0.029657875; 22.44753251602
536.46; 0.028860686; 22.476911448577
537.48; 0.028137626; 22.505554337187
538.50; 0.027510219; 22.533558552908
539.52; 0.026994977; 22.561038274659
540.54; 0.026607546; 22.588123608185
541.55; 0.026366281; 22.614963344442
542.57; 0.026294422; 22.641729931686
543.59; 0.026419537; 22.668623880431
544.61; 0.026768947; 22.695873513323
545.62; 0.027361008; 22.723725838651
546.64; 0.0281942; 22.752426318033
547.66; 0.029238049; 22.782189390613
548.68; 0.030430635; 22.813166463582
549.70; 0.031685994; 22.845421437992
550.71; 0.032911208; 22.878923627927
