#Wavenumber (cm^-1); Spectrum (K*cm*km*mol^-1); Integral (K*km*mol^-1)
0.00; 1.8847406; 1.9185845880584
1.02; 1.9905887; 3.944918010622
2.04; 2.2977253; 6.2839032419613
3.05; 2.7771504; 9.1109225117724
4.07; 3.3874159; 12.559165718954
5.09; 4.083232; 16.715719720442
6.11; 4.8244799; 21.62683211571
7.13; 5.5834591; 27.310552577848
8.14; 6.3486095; 33.773163102816
9.16; 7.123816; 41.02490034476
10.18; 7.9235449; 49.090727166153
11.20; 8.7652097; 58.01333245131
12.22; 9.6610104; 67.847824146388
13.23; 10.611773; 78.650151209373
14.25; 11.604871; 90.463408733488
15.27; 12.61717; 103.30714349648
16.29; 13.622382; 117.17414098317
17.31; 14.600628; 132.03694994659
18.32; 15.547008; 147.86313366047
19.34; 16.475931; 164.6349204459
20.36; 17.419012; 182.36672326323
21.38; 18.416425; 201.11384926307
22.40; 19.503879; 220.96795645117
23.41; 20.699287; 242.03893745718
24.43; 21.993779; 264.42765493625
25.45; 23.350701; 288.19766065306
26.47; 24.713787; 313.35522909304
27.48; 26.022516; 339.84502735816
28.50; 27.229962; 367.56395399153
29.52; 28.317176; 396.38961722811
30.54; 29.298964; 426.21469852236
31.56; 30.218688; 456.97601913
32.57; 31.133468; 488.66854650905
33.59; 32.094662; 521.33952749457
34.61; 33.130334; 555.06477756895
35.63; 34.235936; 589.91548315542
36.65; 35.376648; 625.92738467703
37.66; 36.500743; 663.08356616278
38.68; 37.559413; 701.31742801681
39.70; 38.526121; 740.53535692213
40.72; 39.40859; 780.65160071778
41.74; 40.249015; 821.62336152748
42.75; 41.1121; 863.47370492137
43.77; 42.06464; 906.29369281191
44.79; 43.153303; 950.22189350992
45.81; 44.3879; 995.40686050408
46.83; 45.735754; 1041.9638842042
47.84; 47.129326; 1089.9395046776
48.86; 48.485132; 1139.2952769009
49.88; 49.7285; 1189.9167442292
50.90; 50.816922; 1241.6461782918
51.92; 51.755032; 1294.3305670889
52.93; 52.596599; 1347.8716355587
53.95; 53.432622; 1402.263739335
54.97; 54.368586; 1457.6086134443
55.99; 55.497204; 1514.102372605
57.01; 56.874424; 1571.9980823905
58.02; 58.50571; 1631.5543705435
59.04; 60.346741; 1692.9847489113
60.06; 62.318363; 1756.4221532084
61.08; 64.331195; 1821.9085334232
62.10; 66.312143; 1889.4114330447
63.11; 68.22429; 1958.8608166224
64.13; 70.073676; 2030.1927946077
65.15; 71.900749; 2103.3846545466
66.17; 73.759484; 2178.4686259089
67.19; 75.691337; 2255.5191407489
68.20; 77.703045; 2334.6174876197
69.22; 79.755832; 2415.8054829779
70.24; 81.769595; 2499.0434017842
71.26; 83.640445; 2584.1857652176
72.27; 85.265646; 2670.9825137874
73.29; 86.568046; 2759.105049279
74.31; 87.513124; 2848.1896334862
75.33; 88.115117; 2937.8870204024
76.35; 88.432699; 3027.9076916184
77.36; 88.55769; 3118.0555990558
78.38; 88.601111; 3208.247707015
79.40; 88.679603; 3298.5197161886
80.42; 88.902991; 3389.0191245253
81.44; 89.362029; 3479.9858134578
82.45; 90.115421; 3571.7194230487
83.47; 91.177112; 3664.5337882065
84.49; 92.507499; 3758.7024305247
85.51; 94.013877; 3854.4045000364
86.53; 95.564494; 3951.6850307355
87.54; 97.016755; 4050.4439013594
88.56; 98.254401; 4150.4626420732
89.58; 99.223379; 4251.4677607009
90.60; 99.954123; 4353.2167448566
91.62; 100.56057; 4455.5830614874
92.63; 101.21318; 4558.6137064963
93.65; 102.09225; 4662.5392067539
94.67; 103.33524; 4767.7300263886
95.69; 104.99507; 4874.6104722186
96.71; 107.02304; 4983.5553071556
97.72; 109.28245; 5094.8001279479
98.74; 111.58801; 5208.3919119876
99.76; 113.75804; 5324.1926845803
100.78; 115.66234; 5441.9319566627
101.80; 117.25124; 5561.288655968
102.81; 118.55818; 5681.9757651872
103.83; 119.67797; 5803.8027779335
104.85; 120.73007; 5926.7007800827
105.87; 121.81992; 6050.7082006136
106.89; 123.01; 6175.9270738034
107.90; 124.3071; 6302.4663417984
108.92; 125.66627; 6430.3891787873
109.94; 127.00713; 6559.6769529023
110.96; 128.23643; 6690.2161093347
111.98; 129.27125; 6821.8086657427
112.99; 130.05937; 6954.2034921703
114.01; 130.59517; 7087.1437448566
115.03; 130.92953; 7220.4243608302
116.05; 131.17144; 7353.9512235858
117.07; 131.47839; 7487.7905534586
118.08; 132.03338; 7622.1948381147
119.10; 133.00928; 7757.5925483928
120.12; 134.5265; 7894.5347164941
121.14; 136.61411; 8033.6019819222
122.15; 139.18694; 8175.2882765572
123.17; 142.04848; 8319.8875020916
124.19; 144.92302; 8467.4128857796
125.21; 147.511; 8617.5727146331
126.23; 149.55356; 8769.8117892153
127.24; 150.88836; 8923.4096255978
128.26; 151.48084; 9077.6105825928
129.28; 151.42392; 9231.7536036299
130.30; 150.90955; 9385.3730127746
131.32; 150.18535; 9538.2552218497
132.33; 149.51365; 9690.4536696649
133.35; 149.14646; 9842.278330424
134.37; 149.32081; 9994.2804765119
135.39; 150.26714; 10147.245942859
136.41; 152.21491; 10302.194151601
137.42; 155.37894; 10460.363212549
138.44; 159.91764; 10623.152473558
139.46; 165.86844; 10791.999385586
140.48; 173.08081; 10968.188186141
141.50; 181.17609; 11152.617629376
142.51; 189.56112; 11345.582667644
143.53; 197.50913; 11546.638443068
144.55; 204.29885; 11754.605860212
145.57; 209.38009; 11967.745761583
146.59; 212.51959; 12184.081529638
147.60; 213.88045; 12401.802593589
148.62; 214.00478; 12619.650220643
149.64; 213.69659; 12837.184125596
150.66; 213.83286; 13054.856753863
151.68; 215.15362; 13273.873851096
152.69; 218.08904; 13495.879087643
153.71; 222.67063; 13722.548180239
154.73; 228.54689; 13955.199057098
155.75; 235.09258; 14194.51315451
156.77; 241.57297; 14440.424011075
157.78; 247.31211; 14692.177062496
158.80; 251.81786; 14948.51677978
159.82; 254.83628; 15207.92911594
160.84; 256.33368; 15468.865744458
161.86; 256.42854; 15729.898935349
162.87; 255.30766; 15989.791119857
163.89; 253.15976; 16247.496831645
164.91; 250.14598; 16502.134640542
165.93; 246.40806; 16752.967412653
166.94; 242.09858; 16999.41332399
167.96; 237.40992; 17241.086377302
168.98; 232.58191; 17477.844724161
170.00; 227.8797; 17709.816424657
171.02; 223.54764; 17937.378275733
172.03; 219.75619; 18161.080593957
173.05; 216.56221; 18381.531583129
174.07; 213.89803; 18599.270551984
175.09; 211.59376; 18814.663864275
176.11; 209.4255; 19027.849988675
177.12; 207.17385; 19238.74402434
178.14; 204.67477; 19447.094110727
179.16; 201.85; 19652.568696673
180.18; 198.71182; 19854.848753027
181.20; 195.34641; 20053.70296679
182.21; 191.88514; 20249.033760321
183.23; 188.47484; 20440.893009322
184.25; 185.25479; 20629.474389869
185.27; 182.34348; 20815.092179956
186.29; 179.83301; 20998.154421265
187.30; 177.78699; 21179.133902637
188.32; 176.23781; 21358.536390601
189.34; 175.182; 21536.864103705
190.36; 174.57527; 21714.574199446
191.38; 174.33128; 21892.035922441
192.39; 174.32762; 22069.493918376
193.41; 174.42094; 22247.046903711
194.43; 174.46936; 22424.649184771
195.45; 174.35757; 22602.137670113
196.47; 174.0181; 22779.280581942
197.48; 173.44324; 22955.838316609
198.50; 172.68472; 23131.623914602
199.52; 171.84181; 23306.55146197
200.54; 171.04227; 23480.665115635
201.56; 170.42231; 23654.147668681
202.57; 170.11097; 23827.313300392
203.59; 170.2223; 24000.592259432
204.61; 170.85439; 24174.514653814
205.63; 172.09188; 24349.696758047
206.65; 174.00681; 24526.828185275
207.66; 176.65412; 24706.654456525
208.68; 180.06126; 24889.949050977
209.70; 184.21566; 25077.472646486
210.72; 189.05629; 25269.923790909
211.74; 194.476; 25467.89196968
212.75; 200.33833; 25671.827744766
213.77; 206.50705; 25882.043008159
214.79; 212.88142; 26098.747103132
215.81; 219.42636; 26322.113670874
216.82; 226.18709; 26552.36236323
217.84; 233.28175; 26789.833114668
218.86; 240.8728; 27035.031232702
219.88; 249.12464; 27288.629366487
220.90; 258.15986; 27551.424960935
221.91; 268.02694; 27824.26481713
222.93; 278.68824; 28107.957420706
223.95; 290.03039; 28403.195845593
224.97; 301.89202; 28710.508896957
225.99; 314.09871; 29030.247826086
227.00; 326.49342; 29362.604039233
228.02; 338.95284; 29707.643404573
229.04; 351.38438; 30065.337539016
230.06; 363.70411; 30435.5726286
231.08; 375.80044; 30818.121256913
232.09; 387.49164; 31212.571028555
233.11; 398.48748; 31618.214091844
234.13; 408.36573; 32033.912778622
235.15; 416.574; 32457.96713669
236.17; 422.46485; 32888.018127051
237.18; 425.36653; 33321.022894224
238.20; 424.68396; 33753.332840796
239.22; 420.01456; 34180.889536002
240.24; 411.25451; 34599.528876996
241.26; 398.66754; 35005.355230296
242.27; 382.89172; 35395.122479346
243.29; 364.87242; 35766.546860214
244.31; 345.72859; 36118.483645033
245.33; 326.57912; 36450.927095816
246.35; 308.37022; 36764.834669594
247.36; 291.74688; 37061.820399083
248.38; 277.00028; 37343.794729174
249.40; 264.10059; 37612.637730655
250.42; 252.7985; 37869.975694363
251.44; 242.7582; 38117.093062345
252.45; 233.67654; 38354.965691478
253.47; 225.35163; 38584.363925773
254.49; 217.68538; 38805.958249975
255.51; 210.63106; 39020.37157577
256.53; 204.11836; 39228.155255249
257.54; 197.99635; 39429.706992476
258.56; 192.02582; 39625.180992425
259.58; 185.93078; 39814.450504601
260.60; 179.49226; 39997.165882448
261.61; 172.64769; 40172.91377857
262.63; 165.55343; 40341.440023626
263.65; 158.58002; 40502.867645062
264.67; 152.23428; 40657.83557323
265.69; 147.03056; 40807.506337183
266.70; 143.35413; 40953.434658687
267.72; 141.36399; 41097.337102711
268.74; 140.96902; 41240.837479371
269.76; 141.88487; 41385.270158417
270.78; 143.74929; 41531.600732703
271.79; 146.25199; 41680.478944537
272.81; 149.23055; 41832.389200363
273.83; 152.69689; 41987.828041225
274.85; 156.78576; 42147.429175971
275.87; 161.64663; 42311.97846553
276.88; 167.32246; 42482.305504677
277.90; 173.66482; 42659.08879861
278.92; 180.32256; 42842.649385374
279.94; 186.8151; 43032.81909706
280.96; 192.67112; 43228.949979859
281.97; 197.58903; 43430.087086351
282.99; 201.56608; 43635.272658396
284.01; 204.95052; 43843.903445704
285.03; 208.39384; 44056.039378525
286.05; 212.70925; 44272.568219602
287.06; 218.67007; 44495.164910336
288.08; 226.7983; 44726.035789875
289.10; 237.19698; 44967.492079491
290.12; 249.46792; 45221.439657053
291.14; 262.73551; 45488.893065677
292.15; 275.77205; 45769.617113406
293.17; 287.19768; 46061.971959276
294.19; 295.71273; 46362.994759712
295.21; 300.31533; 46668.702802148
296.23; 300.4616; 46974.55974942
297.24; 296.13909; 47276.01656678
298.26; 287.84199; 47569.027295215
299.28; 276.45717; 47850.448762115
300.30; 263.08739; 48118.260369791
301.32; 248.85051; 48371.579448183
302.33; 234.69691; 48610.490779717
303.35; 221.2819; 48835.746201533
304.37; 208.91548; 49048.413143222
305.39; 197.59307; 49249.554357143
306.41; 187.09074; 49440.004653151
307.42; 177.09441; 49620.27912096
308.44; 167.3263; 49790.610074292
309.46; 157.63644; 49951.077166271
310.48; 148.03999; 50101.775489413
311.49; 138.69829; 50242.964359641
312.51; 129.85759; 50375.153779636
313.53; 121.76997; 50499.110350255
314.55; 114.62251; 50615.791123925
315.57; 108.49503; 50726.234386877
316.58; 103.35502; 50831.445336154
317.60; 99.086406; 50932.311022159
318.62; 95.53906; 51029.5656626
319.64; 92.581694; 51123.809832478
320.66; 90.142276; 51215.570779822
321.67; 88.22542; 51305.380450767
322.69; 86.903641; 51393.844607662
323.71; 86.28623; 51481.680266871
324.73; 86.474524; 51569.707601215
325.75; 87.51479; 51658.79388074
326.76; 89.360005; 51749.758509886
327.78; 91.849871; 51843.257714964
328.80; 94.714827; 51939.67332149
329.82; 97.605126; 52039.031127567
330.84; 100.14067; 52140.970006969
331.85; 101.97228; 52244.773390612
332.87; 102.84167; 52349.461770809
333.89; 102.62656; 52453.931180702
334.91; 101.36043; 52557.11172638
335.93; 99.221904; 52658.115343284
336.94; 96.496562; 52756.344679793
337.96; 93.520796; 52851.544814484
338.98; 90.621519; 52943.793610096
340.00; 88.065771; 53033.440764657
341.02; 86.030369; 53121.015967641
342.03; 84.595371; 53207.130405044
343.05; 83.75844; 53292.392883082
344.07; 83.462379; 53377.353983489
345.09; 83.6265; 53462.482152152
346.11; 84.173981; 53548.167632051
347.12; 85.050737; 53634.745612242
348.14; 86.234913; 53722.52903219
349.16; 87.738301; 53811.842836841
350.18; 89.601469; 53903.053266292
351.20; 91.88347; 53996.586673944
352.21; 94.646118; 54092.932337563
353.23; 97.933029; 54192.623934841
354.25; 101.74553; 54296.196490999
355.27; 106.02051; 54404.120792833
356.28; 110.61798; 54516.725123848
357.30; 115.32651; 54634.122534441
358.32; 119.89188; 54756.167297669
359.34; 124.06813; 54882.463303259
360.36; 127.68195; 55012.438021006
361.37; 130.69424; 55145.479122277
362.39; 133.23901; 55281.110687359
363.41; 135.62212; 55419.1681522
364.43; 138.27115; 55559.922215921
365.45; 141.6409; 55704.10654361
366.46; 146.09337; 55852.82328619
367.48; 151.78182; 56007.33062492
368.50; 158.57199; 56168.750067741
369.52; 166.02691; 56337.758294044
370.54; 173.46678; 56514.339991588
371.55; 180.09527; 56697.669203916
372.57; 185.16379; 56886.15795121
373.59; 188.13303; 57077.669261502
374.61; 188.78939; 57269.848717027
375.63; 187.28503; 57460.49679863
376.64; 184.09099; 57647.893482467
377.66; 179.87686; 57831.000362535
378.68; 175.35103; 58009.500143664
379.70; 171.10561; 58183.678271884
380.72; 167.50694; 58354.19310398
381.73; 164.65709; 58521.806918157
382.75; 162.42941; 58687.153053018
383.77; 160.55873; 58850.594908948
384.79; 158.75247; 59012.198076277
385.81; 156.78608; 59171.799541422
386.82; 154.55517; 59329.130035836
387.84; 152.07461; 59483.935426226
388.86; 149.43353; 59636.052306512
389.88; 146.72949; 59785.416596353
390.90; 144.00984; 59932.012396117
391.91; 141.24249; 60075.791159439
392.93; 138.32581; 60216.600867151
393.95; 135.13167; 60354.159075208
394.97; 131.56432; 60488.085871289
395.99; 127.61287; 60617.990261686
397.00; 123.37889; 60743.58465036
398.02; 119.07035; 60864.793127555
399.04; 114.96491; 60981.822440553
400.06; 111.35549; 61095.177527698
401.07; 108.49518; 61205.620942173
402.09; 106.55667; 61314.091038899
403.11; 105.61497; 61421.60251969
404.13; 105.65316; 61529.152876884
405.15; 106.58402; 61637.650806395
406.16; 108.27648; 61747.871587848
407.18; 110.57718; 61860.434383416
408.20; 113.32182; 61975.791101201
409.22; 116.3373; 62094.217456779
410.24; 119.44092; 62215.803159775
411.25; 122.44486; 62340.446740266
412.27; 125.17309; 62467.867540232
413.29; 127.49257; 62597.649471888
414.31; 129.35433; 62729.326594172
415.33; 130.83397; 62862.509933556
416.34; 132.15788; 62997.040956084
417.36; 133.70192; 63133.143738412
418.38; 135.95441; 63271.539464884
419.40; 139.44325; 63413.486675792
420.42; 144.63614; 63560.720028144
421.43; 151.83166; 63715.278102644
422.45; 161.06334; 63879.233631236
423.47; 172.0396; 64054.362517799
424.49; 184.1368; 64241.805839213
425.51; 196.45358; 64441.787109169
426.52; 207.92208; 64653.442810744
427.54; 217.45977; 64874.807473412
428.56; 224.13578; 65102.968020505
429.58; 227.32069; 65334.370669805
430.60; 226.79051; 65565.233622854
431.61; 222.76278; 65791.996515885
432.63; 215.85564; 66011.728243819
433.65; 206.97607; 66222.420949101
434.67; 197.15781; 66423.119090755
435.69; 187.38078; 66613.864636509
436.70; 178.40766; 66795.475939027
437.72; 170.67021; 66969.210850573
438.74; 164.22685; 67136.38669492
439.76; 158.79759; 67298.035792679
440.78; 153.86525; 67454.663974392
441.79; 148.81747; 67606.153737911
442.81; 143.09649; 67751.819786407
443.83; 136.32321; 67890.590933804
444.85; 128.37079; 68021.266856125
445.87; 119.37612; 68142.78659073
446.88; 109.69355; 68254.449886305
447.90; 99.808007; 68356.050130064
448.92; 90.232502; 68447.902923105
449.94; 81.415289; 68530.780173806
450.95; 73.675985; 68605.779147672
451.97; 67.179512; 68674.164991575
452.99; 61.945663; 68737.223003179
454.01; 57.883412; 68796.145818914
455.03; 54.834953; 68851.965435145
456.04; 52.61554; 68905.525784037
457.06; 51.040241; 68957.482547062
458.08; 49.935581; 69008.31481322
459.10; 49.140096; 69058.337310371
460.12; 48.501253; 69107.709492898
461.13; 47.875976; 69156.445170591
462.15; 47.138898; 69204.430534424
463.17; 46.197738; 69251.457837826
464.19; 45.01095; 69297.277042557
465.21; 43.600539; 69341.660509378
466.22; 42.053534; 69384.469192106
467.24; 40.508811; 69425.705413888
468.26; 39.130562; 69465.538637711
469.28; 38.074202; 69504.296532598
470.30; 37.453325; 69542.422400852
471.31; 37.316567; 69580.409055517
472.33; 37.640858; 69618.725824661
473.35; 38.343205; 69657.757552991
474.37; 39.308191; 69697.771595365
475.39; 40.424102; 69738.921586484
476.40; 41.618187; 69781.287105061
477.42; 42.88158; 69824.93870278
478.44; 44.276788; 69870.010562088
479.46; 45.924851; 69916.760079064
480.48; 47.974176; 69965.595720539
481.49; 50.557623; 70017.06119935
482.51; 53.747567; 70071.773903131
483.53; 57.519621; 70130.326395593
484.55; 61.734236; 70193.169183496
485.57; 66.141677; 70260.498556909
486.58; 70.410786; 70332.173698476
487.60; 74.176459; 70407.682133082
488.62; 77.096447; 70486.162989419
489.64; 78.905753; 70566.485641248
490.66; 79.45744; 70647.369886847
491.67; 78.74178; 70727.525620542
492.69; 76.880692; 70805.786847335
493.71; 74.100012; 70881.217462408
494.73; 70.686797; 70953.173571293
495.74; 66.941569; 71021.317199523
496.76; 63.135497; 71085.58641062
497.78; 59.480197; 71146.134684257
498.80; 56.113982; 71203.256296017
499.82; 53.104081; 71257.313959148
500.83; 50.460801; 71308.680877113
501.85; 48.157556; 71357.703191485
502.87; 46.150583; 71404.682493407
503.89; 44.393622; 71449.873284602
504.91; 42.845423; 71493.488076511
505.92; 41.470644; 71535.703402903
506.94; 40.236828; 71576.662757458
507.96; 39.111049; 71616.476117438
508.98; 38.059292; 71655.218834097
510.00; 37.049934; 71692.934067832
511.01; 36.060485; 71729.642085953
512.03; 35.084859; 71765.356958906
513.05; 34.137652; 71800.107615683
514.07; 33.252657; 71833.957385595
515.09; 32.474876; 71867.015408081
516.10; 31.847913; 71899.435209053
517.12; 31.400734; 71931.399801104
518.14; 31.138423; 71963.097372116
519.16; 31.040323; 71994.695081866
520.18; 31.066256; 72026.319190187
521.19; 31.168417; 72058.047293292
522.21; 31.304376; 72089.913797198
523.23; 31.446374; 72121.924848895
524.25; 31.583867; 72154.075862128
525.27; 31.719344; 72186.364786045
526.28; 31.86032; 72218.797216762
527.30; 32.011773; 72251.383820468
528.32; 32.172621; 72284.134160184
529.34; 32.337326; 72317.052162401
530.36; 32.500915; 72350.136691074
531.37; 32.663873; 72383.387104776
532.39; 32.833612; 72416.8103052
533.41; 33.021297; 72450.424560307
534.43; 33.235681; 72484.257049867
535.45; 33.47757; 72518.335771028
536.46; 33.738503; 72552.680111618
537.48; 34.005183; 72587.295920937
538.50; 34.267993; 72622.179259164
539.52; 34.529591; 72657.32889232
540.54; 34.809177; 72692.763132753
541.55; 35.14006; 72728.534197038
542.57; 35.56143; 72764.734198492
543.59; 36.108113; 72801.490699334
544.61; 36.802747; 72838.954307318
545.62; 37.653162; 72877.283601785
546.64; 38.654585; 72916.632300809
547.66; 39.793765; 72957.140635972
548.68; 41.051921; 72998.929719575
549.70; 42.405718; 73042.096910169
550.71; 43.828992; 73086.712933155
551.73; 45.299936; 73132.826312898
552.75; 46.816889; 73180.483885725
553.77; 48.420645; 73229.774012551
554.79; 50.214589; 73280.890296909
555.80; 52.370333; 73334.201035522
556.82; 55.109286; 73390.299910174
557.84; 58.660749; 73450.014021317
558.86; 63.2112; 73514.360295092
559.88; 68.870699; 73584.467695132
560.89; 75.683445; 73661.510175832
561.91; 83.696274; 73746.709370771
562.93; 93.07354; 73841.454217894
563.95; 104.218; 73947.543640234
564.97; 117.8379; 74067.497537389
565.98; 134.90193; 74204.821884568
567.00; 156.45044; 74364.081679798
568.02; 183.27863; 74550.651414607
569.04; 215.56011; 74770.082309537
570.06; 252.51802; 75027.134761186
571.07; 292.25948; 75324.642297177
572.09; 331.85988; 75662.461336879
573.11; 367.72185; 76036.786310551
574.13; 396.15671; 76440.056742616
575.15; 414.06785; 76861.559944249
576.16; 419.57595; 77288.670151046
577.18; 412.42954; 77708.505626187
578.20; 394.09096; 78109.673218287
579.22; 367.46517; 78483.736905586
580.24; 336.3279; 78826.104196356
581.25; 304.58613; 79136.159738098
582.27; 275.54883; 79416.656560688
583.29; 251.38593; 79672.556593811
584.31; 232.90665; 79909.645509352
585.33; 219.70305; 80133.293737245
