#Wavenumber (cm^-1); Spectrum (K*cm*km*mol^-1); Integral (K*km*mol^-1)
0.00; 33.758101; 34.36428996894
1.02; 35.68256; 70.687596529329
2.04; 41.271399; 112.70010019731
3.05; 50.010066; 163.60818953289
4.07; 61.162028; 225.86849432562
5.09; 73.920352; 301.1162227665
6.11; 87.566946; 390.25559509322
7.13; 101.60141; 493.6814422753
8.14; 115.80845; 611.56944803419
9.16; 130.24789; 744.15618112584
10.18; 145.17096; 891.93395145408
11.20; 160.88691; 1055.7098846659
12.22; 177.61895; 1236.5183069667
13.23; 195.39361; 1435.4205700724
14.25; 214.00062; 1653.2639701675
15.27; 233.04039; 1890.4890291655
16.29; 252.04912; 2147.0641596095
17.31; 270.66415; 2422.5885816142
18.32; 288.77364; 2716.5476888913
19.34; 306.59401; 3028.6471600337
20.36; 324.63677; 3359.1133817902
21.38; 343.56208; 3708.8447550296
22.40; 363.95681; 4079.3370872018
23.41; 386.10747; 4472.3778326089
24.43; 409.8488; 4889.586222372
25.45; 434.55083; 5331.9402165323
26.47; 459.26382; 5799.4509679005
27.48; 482.98523; 6291.109086301
28.50; 504.96567; 6805.1423450735
29.52; 524.94969; 7339.5184770312
30.54; 543.26293; 7892.5367017277
31.56; 560.7067; 8463.3119243299
32.57; 578.28788; 9051.9840354446
33.59; 596.87292; 9659.5749110267
34.61; 616.88545; 10287.537679973
35.63; 638.15652; 10937.153482477
36.65; 659.98491; 11608.989643769
37.66; 681.39179; 12302.617078915
38.68; 701.48418; 13016.697704402
39.70; 719.80123; 13749.424297921
40.72; 736.52052; 14499.170407748
41.74; 752.44833; 15265.130335797
42.75; 768.79066; 16047.72605325
43.77; 786.77634; 16848.63041282
44.79; 807.25361; 17670.379751714
45.81; 830.39191; 18515.682886681
46.83; 855.58766; 19386.634200073
47.84; 881.6093; 20284.074429406
48.86; 906.94322; 21207.303490992
49.88; 930.2403; 22154.247978349
50.90; 950.73265; 23122.052790284
51.92; 968.49692; 24107.940864251
52.93; 984.48432; 25110.103420905
53.95; 1000.3033; 26128.368975993
54.97; 1017.8118; 27164.457469763
55.99; 1038.633; 28221.741055367
57.01; 1063.7315; 29304.573819898
58.02; 1093.175; 30417.378831277
59.04; 1126.1534; 31563.754363461
60.06; 1161.2505; 32745.857299139
61.08; 1196.8884; 33964.238044142
62.10; 1231.8031; 35218.160437869
63.11; 1265.4019; 36506.284917032
64.13; 1297.8832; 37827.474007457
65.15; 1330.0792; 39181.437288487
66.17; 1363.0712; 40568.984968739
67.19; 1397.7063; 41991.789621749
68.20; 1434.1778; 43451.720712433
69.22; 1471.8096; 44949.959408256
70.24; 1509.1144; 46486.172753692
71.26; 1544.104; 48058.003995052
72.27; 1574.7504; 49661.031950707
73.29; 1599.4552; 51289.208304185
74.31; 1617.3989; 52935.650627006
75.33; 1628.6966; 54593.593520791
76.35; 1634.3549; 56257.296240798
77.36; 1636.0823; 57922.757467748
78.38; 1636.0258; 59588.161136451
79.40; 1636.4878; 61254.035104514
80.42; 1639.6503; 62923.128395068
81.44; 1647.3016; 64600.010359055
82.45; 1660.5649; 66290.393776653
83.47; 1679.6577; 68000.212863625
84.49; 1703.7502; 69734.557031228
85.51; 1731.0121; 71496.652658195
86.53; 1758.916; 73287.153213621
87.54; 1784.7903; 75103.992714839
88.56; 1806.5182; 76942.950303101
89.58; 1823.1894; 78798.878391313
90.60; 1835.4839; 80667.321810753
91.62; 1845.6215; 82546.084887453
92.63; 1856.8358; 84436.263579213
93.65; 1872.4966; 86342.384299667
94.67; 1895.1366; 88271.551574386
95.69; 1925.6881; 90231.818957095
96.71; 1963.1802; 92230.251658966
97.72; 2004.997; 94271.252055182
98.74; 2047.6112; 96355.631915639
99.76; 2087.5517; 98480.669459702
100.78; 2122.2954; 100641.07463652
101.80; 2150.8176; 102830.51413432
102.81; 2173.6627; 105043.20894452
103.83; 2192.5671; 107275.14767268
104.85; 2209.8011; 109524.62987618
105.87; 2227.4618; 111792.08987519
106.89; 2246.9265; 114079.36411652
107.90; 2268.5878; 116388.68864521
108.92; 2291.8833; 118721.72694906
109.94; 2315.5498; 121078.8567717
110.96; 2337.9974; 123458.83723131
111.98; 2357.7079; 125858.88213384
112.99; 2373.6004; 128275.10495561
114.01; 2385.3311; 130703.26905028
115.03; 2393.5; 133139.7487852
116.05; 2399.7226; 135582.56279405
117.07; 2406.5048; 138032.28085566
118.08; 2416.8791; 140492.55943801
119.10; 2433.8071; 142970.07003215
120.12; 2459.4469; 145473.68088906
121.14; 2494.461; 148012.93449852
122.15; 2537.583; 150596.08453673
123.17; 2585.6256; 153228.13983197
124.19; 2633.9922; 155909.43019148
125.21; 2677.6032; 158635.11471832
126.23; 2711.998; 161395.8116824
127.24; 2734.3038; 164179.21496665
128.26; 2743.801; 166972.28596046
129.28; 2741.9514; 169763.47414221
130.30; 2731.9444; 172544.47569165
131.32; 2717.9802; 175311.26225669
132.33; 2704.5785; 178064.40650402
133.35; 2696.1487; 180808.9695442
134.37; 2696.8939; 183554.29114933
135.39; 2710.9292; 186313.90006126
136.41; 2742.3492; 189105.49320254
137.42; 2794.9664; 191950.64834354
138.44; 2871.5743; 194873.78706752
139.46; 2972.833; 197900.00279602
140.48; 3096.1242; 201051.72360527
141.50; 3234.8755; 204344.68731645
142.51; 3378.8162; 207784.17640012
143.53; 3515.3834; 211362.68500119
144.55; 3632.1224; 215060.02890588
145.57; 3719.5326; 218846.35262211
146.59; 3773.564; 222687.677982
147.60; 3796.9702; 226552.82984072
148.62; 3798.9988; 230420.04670873
149.64; 3793.3777; 234281.54147217
150.66; 3795.0783; 238144.76740319
151.68; 3816.7292; 242030.03302402
152.69; 3865.672; 245965.12033234
153.71; 3942.4571; 249978.37156907
154.73; 4041.1261; 254092.06360581
155.75; 4151.0823; 258317.68630285
156.77; 4259.8913; 262654.07177485
157.78; 4356.1345; 267088.42871112
158.80; 4431.5201; 271599.52495619
159.82; 4481.7848; 276161.78850917
160.84; 4506.3718; 280749.08049768
161.86; 4507.2648; 285337.28152918
162.87; 4487.5707; 289905.43489413
163.89; 4450.4096; 294435.75986704
164.91; 4398.4383; 298913.18022421
165.93; 4334.0109; 303325.01632341
166.94; 4259.7041; 307661.2112543
167.96; 4178.8067; 311915.05611158
168.98; 4095.4371; 316084.0344039
170.00; 4014.1492; 320170.26503449
171.02; 3939.1339; 324180.1333222
172.03; 3873.313; 328122.99876698
173.05; 3817.6702; 332009.22229921
174.07; 3771.079; 335848.01799391
175.09; 3730.6963; 339645.70588299
176.11; 3692.7908; 343404.80752253
177.12; 3653.7323; 347124.1493837
178.14; 3610.8444; 350799.83316522
179.16; 3562.8958; 354426.70739119
180.18; 3510.159; 357999.89776295
181.20; 3454.1049; 361516.02753986
182.21; 3396.9056; 364973.93088674
183.23; 3340.9285; 368374.8519657
184.25; 3288.3587; 371722.25926967
185.27; 3240.9945; 375021.45183822
186.29; 3200.1812; 378279.09824726
187.30; 3166.8059; 381502.76996586
188.32; 3141.2802; 384700.45768548
189.34; 3123.4843; 387880.02992743
190.36; 3112.6941; 391048.61818148
191.38; 3107.5546; 394211.97465754
192.39; 3106.1614; 397373.91289571
193.41; 3106.281; 400535.972941
194.43; 3105.6899; 403697.43128689
195.45; 3102.5604; 406855.70386811
196.47; 3095.7971; 410007.09174937
197.48; 3085.236; 413147.72886885
198.50; 3071.6557; 416274.54180596
199.52; 3056.6116; 419386.04056194
200.54; 3042.1545; 422482.82252118
201.56; 3030.5234; 425567.7646135
202.57; 3023.9014; 428645.96576909
203.59; 3024.2781; 431724.55039823
204.61; 3033.4162; 434812.43719766
205.63; 3052.8658; 437920.12284621
206.65; 3083.9545; 441059.45542835
207.66; 3127.6974; 444243.3164568
208.68; 3184.6235; 447485.1257263
209.70; 3254.5733; 450798.14088237
210.72; 3336.5704; 454194.62553044
211.74; 3428.8667; 457685.06383515
212.75; 3529.2184; 461277.65591769
213.77; 3635.3651; 464978.30074205
214.79; 3745.597; 468791.15690761
215.81; 3859.2426; 472719.69934462
216.82; 3976.9089; 476768.02098145
217.84; 4100.3764; 480942.02718869
218.86; 4232.1565; 485250.17983929
219.88; 4374.8318; 489703.56984044
220.90; 4530.3712; 494315.29226796
221.91; 4699.617; 499099.29954642
222.93; 4882.0805; 504069.04686466
223.95; 5076.0791; 509236.27630657
224.97; 5279.135; 514610.20791069
225.99; 5488.4871; 520197.25096805
227.00; 5701.54; 526001.17267568
228.02; 5916.1104; 532023.51776775
229.04; 6130.396; 538263.9963198
230.06; 6342.6655; 544720.55611459
231.08; 6550.7333; 551388.91991873
232.09; 6751.3269; 558261.47932309
233.11; 6939.4908; 565325.58147481
234.13; 7108.1909; 572561.41303433
235.15; 7248.2923; 579939.86181472
236.17; 7349.0611; 587420.88885712
237.18; 7399.2637; 594953.01997289
238.20; 7388.8061; 602474.5057165
239.22; 7310.6784; 609916.46083736
240.24; 7162.8048; 617207.88698635
241.26; 6949.3085; 624281.98321311
242.27; 6680.7476; 631082.69602825
243.29; 6373.0788; 637570.21523807
244.31; 6045.4348; 643724.20704098
245.33; 5717.1522; 649544.02129533
246.35; 5404.7475; 655045.82107395
247.36; 5119.605; 660257.3580531
248.38; 4866.9571; 665211.71035097
249.40; 4646.3621; 669941.50648889
250.42; 4453.4239; 674474.89986583
251.44; 4282.1213; 678833.914586
252.45; 4126.9568; 683034.97852424
253.47; 3984.2556; 687090.77879639
254.49; 3852.3061; 691012.26022136
255.51; 3730.4952; 694809.74333095
256.53; 3617.9783; 698492.68912044
257.54; 3512.5899; 702068.35402304
258.56; 3410.5697; 705540.1668218
259.58; 3307.3209; 708906.87679041
260.60; 3198.9552; 712163.27513333
261.61; 3084.0191; 715302.67348817
262.63; 2964.6705; 718320.58015036
263.65; 2846.75; 721218.44878318
264.67; 2738.5977; 724006.22303462
265.69; 2648.9506; 726702.74044008
266.70; 2584.6213; 729333.77340175
267.72; 2548.7658; 731928.30703423
268.74; 2540.346; 734514.26962283
269.76; 2554.9548; 737115.10332741
270.78; 2586.6697; 739748.22145483
271.79; 2630.2197; 742425.67159887
272.81; 2682.6433; 745156.4867573
273.83; 2743.8201; 747949.57726612
274.85; 2815.696; 750815.83431712
275.87; 2900.5323; 753768.45098892
276.88; 2998.8928; 756821.19446919
277.90; 3108.2041; 759985.21210395
278.92; 3222.5292; 763265.60778064
279.94; 3333.7672; 766659.23897083
280.96; 3433.97; 770154.87222031
281.97; 3518.0506; 773736.09588483
282.99; 3585.9812; 777386.47001279
284.01; 3643.6992; 781095.59855853
285.03; 3702.3155; 784864.39599467
286.05; 3775.7216; 788707.91760828
287.06; 3877.1577; 792654.69679955
288.08; 4015.6051; 796742.40946225
289.10; 4192.9132; 801010.61411853
290.12; 4402.3822; 805492.04920363
291.14; 4629.1556; 810204.32987965
292.15; 4852.3472; 815143.80997871
293.17; 5048.4417; 820282.90577072
294.19; 5195.2512; 825571.44731186
295.21; 5275.6221; 830941.80293158
296.23; 5280.1685; 836316.78658422
297.24; 5208.5328; 841618.84824483
298.26; 5068.9828; 846778.85395298
299.28; 4876.4913; 851742.91170466
300.30; 4649.748; 856476.15452431
301.32; 4407.7516; 860963.05545604
302.33; 4166.7025; 865204.57875955
303.35; 3937.8167; 869213.10627025
304.37; 3726.4516; 873006.47321615
305.39; 3532.6057; 876602.51338731
306.41; 3352.527; 880015.24122779
307.42; 3180.909; 883253.26935953
308.44; 3013.0509; 886320.42514151
309.46; 2846.4286; 889217.96658433
310.48; 2681.3417; 891947.45675705
311.49; 2520.5957; 894513.31443287
312.51; 2368.456; 896924.30039976
313.53; 2229.2913; 899193.62278744
314.55; 2106.3577; 901337.80403082
315.57; 2001.0679; 903374.80481841
316.58; 1912.9003; 905322.05481829
317.60; 1839.8847; 907194.97800169
318.62; 1779.4419; 909006.3730498
319.64; 1729.284; 910766.7095832
320.66; 1688.1041; 912485.12666862
321.67; 1655.8814; 914170.74251194
322.69; 1633.753; 915833.83255516
323.71; 1623.5112; 917486.49687918
324.73; 1626.8714; 919142.5817609
325.75; 1644.6872; 920816.8023594
326.76; 1676.2935; 922523.19682792
327.78; 1719.1311; 924273.19809621
328.80; 1768.7559; 926073.71524904
329.82; 1819.2682; 927925.65172487
330.84; 1864.1117; 929823.23704551
331.85; 1897.1061; 931754.40919674
332.87; 1913.5042; 933702.2738872
333.89; 1910.8406; 935647.42720064
334.91; 1889.3659; 937570.72010774
335.93; 1851.9528; 939455.92817
336.94; 1803.4943; 941291.80755244
337.96; 1749.9395; 943073.17045051
338.98; 1697.2105; 944800.85748808
340.00; 1650.2581; 946480.74902209
341.02; 1612.4595; 948122.16323621
342.03; 1585.4473; 949736.08014972
343.05; 1569.332; 951333.59242858
344.07; 1563.1834; 952924.84572639
345.09; 1565.5937; 954518.55252265
346.11; 1575.1701; 956122.00774903
347.12; 1590.8702; 957741.44492267
348.14; 1612.1621; 959382.55639571
349.16; 1639.0482; 961051.03678445
350.18; 1671.9947; 962753.05518906
351.20; 1711.7932; 964495.58683622
352.21; 1759.3506; 966286.52978181
353.23; 1815.3884; 968134.51679692
354.25; 1880.0657; 970048.34257333
355.27; 1952.5882; 972035.9930545
356.28; 2030.9298; 974103.39195969
357.30; 2111.8239; 976253.13757942
358.32; 2191.1448; 978483.62848215
359.34; 2264.7044; 980788.99982521
360.36; 2329.3377; 983160.16512784
361.37; 2384.0089; 985586.98329466
362.39; 2430.5797; 988061.20856307
363.41; 2473.9086; 990579.54080328
364.43; 2521.0878; 993145.89942142
365.45; 2579.8665; 995772.09216687
366.46; 2656.5734; 998476.3692607
367.48; 2754.0611; 1001279.8846125
368.50; 2870.2657; 1004201.691197
369.52; 2997.8727; 1007253.3962128
370.54; 3125.3093; 1010434.8261697
371.55; 3238.9188; 1013731.9057798
372.57; 3325.8226; 1017117.4496783
373.59; 3376.7435; 1020554.8288461
374.61; 3388.044; 1024003.7114452
375.63; 3362.4266; 1027426.5166464
376.64; 3308.1125; 1030794.03241
377.66; 3236.7411; 1034088.895178
378.68; 3160.5886; 1037306.2380152
379.70; 3089.8756; 1040451.5980638
380.72; 3030.8724; 1043536.895345
381.73; 2985.238; 1046575.7387756
382.75; 2950.6389; 1049579.3618886
383.77; 2922.3138; 1052554.1512845
384.79; 2895.0027; 1055501.13909
385.81; 2864.6147; 1058417.1932362
386.82; 2829.1666; 1061297.1627438
387.84; 2788.8157; 1064136.0567593
388.86; 2745.1318; 1066930.4825085
389.88; 2699.9885; 1069678.954245
390.90; 2654.5342; 1072381.1555016
391.91; 2608.6229; 1075036.6210477
392.93; 2560.8745; 1077643.4807543
393.95; 2509.2977; 1080197.8374818
394.97; 2452.2144; 1082694.0859087
395.99; 2389.1431; 1085126.1304892
397.00; 2321.3406; 1087489.1550746
398.02; 2251.8396; 1089781.4306271
399.04; 2184.9922; 1092005.6583742
400.06; 2125.6791; 1094169.5079291
401.07; 2078.4225; 1096285.252377
402.09; 2046.636; 1098368.6395253
403.11; 2032.1698; 1100437.3006737
404.13; 2035.2046; 1102509.0511487
405.15; 2054.4438; 1104600.3862526
406.16; 2087.4878; 1106725.3587976
407.18; 2131.2608; 1108894.8903007
408.20; 2182.3843; 1111116.4633659
409.22; 2237.4555; 1113394.0964801
410.24; 2293.2437; 1115728.5196098
411.25; 2346.8703; 1118117.5322905
412.27; 2396.0443; 1120556.6020065
413.29; 2439.4043; 1123039.8103047
414.31; 2476.9552; 1125561.2437645
415.33; 2510.5155; 1128116.8402465
416.34; 2544.0237; 1130706.5466383
417.36; 2583.5205; 1133336.4590668
418.38; 2636.6531; 1136020.4581566
419.40; 2711.6345; 1138780.7850917
420.42; 2815.7332; 1141647.0799571
421.43; 2953.5231; 1144653.6390516
422.45; 3125.2537; 1147835.0125024
423.47; 3325.7487; 1151220.4812105
424.49; 3544.1927; 1154828.3164092
425.51; 3765.0039; 1158660.9279295
426.52; 3969.7594; 1162701.971712
427.54; 4139.8826; 1166916.1935851
428.56; 4259.6007; 1171252.2832915
429.58; 4318.5764; 1175648.4077148
430.60; 4313.6578; 1180039.5252013
431.61; 4249.3594; 1184365.1897118
432.63; 4136.9542; 1188576.4305998
433.65; 3992.3524; 1192640.4731069
434.67; 3833.2013; 1196542.506633
435.69; 3675.7998; 1200284.3122199
436.70; 3532.448; 1203880.191894
437.72; 3409.742; 1207351.1621107
438.74; 3308.1066; 1210718.6718282
439.76; 3222.5862; 1213999.1254823
440.78; 3144.6454; 1217200.2388087
441.79; 3064.53; 1220319.798117
442.81; 2973.6469; 1223346.8423904
443.83; 2866.4564; 1226264.7712756
444.85; 2741.5162; 1229055.5164248
445.87; 2601.5418; 1231703.7737264
446.88; 2452.5816; 1234200.3959491
447.90; 2302.6007; 1236544.3441306
448.92; 2159.8707; 1238742.9992968
449.94; 2031.5519; 1240811.0314607
450.95; 1922.7526; 1242768.310588
451.97; 1836.1822; 1244637.4648225
452.99; 1772.3487; 1246441.6392931
454.01; 1730.1219; 1248202.8286842
455.03; 1707.434; 1249940.922812
456.04; 1701.9097; 1251673.3934543
457.06; 1711.2941; 1253415.4170065
458.08; 1733.6424; 1255180.1901326
459.10; 1767.3142; 1256979.2396805
460.12; 1810.8618; 1258822.6188711
461.13; 1862.9107; 1260718.9815284
462.15; 1922.111; 1262675.6075427
463.17; 1987.2109; 1264698.5024416
464.19; 2057.2635; 1266792.7079028
465.21; 2131.9457; 1268962.9365959
466.22; 2211.9259; 1271214.5817475
467.24; 2299.1836; 1273555.0514426
468.26; 2397.1594; 1275995.2562232
469.28; 2510.6341; 1278550.9734208
470.30; 2645.3021; 1281243.776811
471.31; 2807.1224; 1284101.3063058
472.33; 3001.6702; 1287156.877004
473.35; 3233.8019; 1290448.7478304
474.37; 3507.9395; 1294019.6788949
475.39; 3829.1161; 1297917.5538371
476.40; 4204.6359; 1302197.6917269
477.42; 4645.8481; 1306926.9645984
478.44; 5169.2555; 1312189.0436429
479.46; 5796.1073; 1318089.2307481
480.48; 6549.8499; 1324756.6953426
481.49; 7451.3307; 1332341.8285041
482.51; 8512.3456; 1341007.0289805
483.53; 9728.7975; 1350910.5249721
484.55; 11075.155; 1362184.5544177
485.57; 12501.891; 1374910.9397007
486.58; 13937.103; 1389098.30875
487.60; 15292.623; 1404665.5387449
488.62; 16473.905; 1421435.2631159
489.64; 17392.038; 1439139.6077212
490.66; 17975.693; 1457438.0874657
491.67; 18180.772; 1475945.3286783
492.69; 17996.03; 1494264.5102022
493.71; 17443.77; 1512021.5151884
494.73; 16575.734; 1528894.8972279
495.74; 15465.178; 1544637.7805861
496.76; 14196.727; 1559089.4360452
497.78; 12855.827; 1572176.1127455
498.80; 11519.425; 1583902.3902074
499.82; 10249.134; 1594335.5658834
500.83; 9087.516; 1603586.2649989
501.85; 8057.5768; 1611788.5304758
502.87; 7165.0078; 1619082.1992781
503.89; 6402.374; 1625599.5396911
504.91; 5754.2216; 1631457.0889668
505.92; 5202.0801; 1636752.5819802
506.94; 4728.4893; 1641565.9800214
507.96; 4319.4977; 1645963.0422487
508.98; 3965.4674; 1649999.7169479
510.00; 3660.4204; 1653725.8670028
511.01; 3400.4646; 1657187.3932388
512.03; 3181.984; 1660426.5156778
513.05; 3000.2293; 1663480.619681
514.07; 2848.7254; 1666380.4992551
515.09; 2719.6015; 1669148.936228
516.10; 2604.6388; 1671800.346175
517.12; 2496.6217; 1674341.7993491
518.14; 2390.5181; 1676775.2436282
519.16; 2284.1158; 1679100.3749308
520.18; 2177.9443; 1681317.4282138
521.19; 2074.5494; 1683429.2299458
522.21; 1977.3753; 1685442.1126858
523.23; 1889.5983; 1687365.6422103
524.25; 1813.2291; 1689211.4312283
525.27; 1748.6862; 1690991.5183367
526.28; 1694.879; 1692716.8319868
527.30; 1649.6915; 1694396.1467863
528.32; 1610.6579; 1696035.7270251
529.34; 1575.596; 1697639.6157727
530.36; 1543.0175; 1699210.3409866
531.37; 1512.2278; 1700749.7236006
532.39; 1483.1454; 1702259.5016368
533.41; 1455.9602; 1703741.6062861
534.43; 1430.7901; 1705198.0888785
535.45; 1407.4762; 1706630.8388741
536.46; 1385.5811; 1708041.3006737
537.48; 1364.5658; 1709430.3697898
538.50; 1344.0399; 1710798.5443847
539.52; 1323.9578; 1712146.2763313
540.54; 1304.6639; 1713474.3679183
541.55; 1286.7668; 1714784.2409791
542.57; 1270.9091; 1716077.9716094
543.59; 1257.5474; 1717358.1005474
544.61; 1246.8457; 1718627.3356896
545.62; 1238.7239; 1719888.3032124
546.64; 1233.0127; 1721143.4569496
547.66; 1229.6134; 1722395.1503724
548.68; 1228.5644; 1723645.7759139
549.70; 1229.9851; 1724897.8476879
550.71; 1233.9668; 1726153.9726597
551.73; 1240.5397; 1727416.7885286
552.75; 1249.8297; 1728689.0612735
553.77; 1262.4123; 1729974.1425184
554.79; 1279.7239; 1731276.8462189
555.80; 1304.2937; 1732604.5609193
556.82; 1339.5772; 1733968.1927394
557.84; 1389.3442; 1735382.4852179
558.86; 1456.8328; 1736865.4781584
559.88; 1544.1097; 1738437.3151682
560.89; 1652.1297; 1740119.1119586
561.91; 1781.7841; 1741932.8912802
562.93; 1935.7885; 1743903.4404301
563.95; 2120.7508; 1746062.273225
564.97; 2348.3893; 1748452.8321733
565.98; 2634.869; 1751135.0151365
567.00; 2997.6719; 1754186.515762
568.02; 3450.231; 1757698.7020203
569.04; 3995.4864; 1761765.9347463
570.06; 4620.213; 1766469.1121631
571.07; 5292.1342; 1771856.2764634
572.09; 5961.3344; 1777924.6576188
573.11; 6566.4077; 1784608.9772718
574.13; 7044.446; 1791779.9193293
575.15; 7342.7668; 1799254.5390771
576.16; 7429.61; 1806817.5614447
577.18; 7301.1059; 1814249.772173
578.20; 6982.6369; 1821357.7952341
579.22; 6524.0732; 1827999.0202052
580.24; 5989.8938; 1834096.4736196
581.25; 5446.5144; 1839640.7902177
582.27; 4949.8828; 1844679.5573039
583.29; 4536.3746; 1849297.3909184
584.31; 4219.1859; 1853592.3400867
585.33; 3990.9522; 1857654.9571781
