#Wavenumber (cm^-1); Spectrum (K*cm*km*mol^-1); Integral (K*km*mol^-1)
0.00; 3.1378744; 3.194220711683
1.02; 3.3158147; 6.5695769795792
2.04; 3.8313901; 10.469766794662
3.05; 4.635116; 15.188114866369
4.07; 5.6601327; 20.949885677022
5.09; 6.8397128; 27.91241812827
6.11; 8.1222142; 36.180481734422
7.13; 9.4783661; 45.829049435589
8.14; 10.898769; 56.923526165265
9.16; 12.38328; 69.52917044668
10.18; 13.927092; 83.706349448167
11.20; 15.509647; 99.494500981766
12.22; 17.091423; 116.89283161048
13.23; 18.620626; 135.84782554488
14.25; 20.047874; 156.25569598752
15.27; 21.343649; 177.98260916407
16.29; 22.511923; 200.89877551427
17.31; 23.594384; 224.91684025941
18.32; 24.662861; 250.02256900053
19.34; 25.801713; 276.28759963434
20.36; 27.085501; 303.85947121954
21.38; 28.559069; 332.931371038
22.40; 30.226427; 363.70056927123
23.41; 32.052013; 396.32813565566
24.43; 33.973916; 430.91211562549
25.45; 35.924933; 467.48214725382
26.47; 37.855091; 506.01699606388
27.48; 39.748985; 546.47974739568
28.50; 41.633015; 588.8603596845
29.52; 43.570412; 633.21315905294
30.54; 45.645113; 679.67791431462
31.56; 47.938113; 728.47684510644
32.57; 50.50163; 779.88532565163
33.59; 53.337019; 834.18010962937
34.61; 56.382098; 891.57465198281
35.63; 59.512303; 952.15560835976
36.65; 62.557891; 1015.8368417878
37.66; 65.336131; 1082.3462038268
38.68; 67.693434; 1151.2551990494
39.70; 69.548355; 1222.0524237601
40.72; 70.923789; 1294.2497800231
41.74; 71.956889; 1367.4987882271
42.75; 72.879243; 1441.6867126974
43.77; 73.967368; 1516.9823017204
44.79; 75.473022; 1593.8105814815
45.81; 77.55101; 1672.7541630454
46.83; 80.206004; 1754.4004138292
47.84; 83.276964; 1839.172769453
48.86; 86.467974; 1927.1934353951
49.88; 89.42016; 2018.219299618
50.90; 91.805409; 2111.673244796
51.92; 93.41397; 2206.7646353213
52.93; 94.208452; 2302.6647741864
53.95; 94.326867; 2398.6854540923
54.97; 94.034149; 2494.4081601411
55.99; 93.639221; 2589.7288462705
57.01; 93.406483; 2684.812615208
58.02; 93.491933; 2779.9833684223
59.04; 93.92405; 2875.5939982102
60.06; 94.631852; 2971.9251404174
61.08; 95.504021; 3069.1441128368
62.10; 96.451208; 3167.327280975
63.11; 97.443574; 3266.5206342487
64.13; 98.507468; 3366.7969856396
65.15; 99.684195; 3468.27119436
66.17; 100.9719; 3571.0562313923
67.19; 102.28084; 3675.1737170642
68.20; 103.42821; 3780.4591693677
69.22; 104.18225; 3886.512199557
70.24; 104.34365; 3992.729532649
71.26; 103.83374; 4098.4277976759
72.27; 102.75278; 4203.025690406
73.29; 101.38088; 4306.2270534959
74.31; 100.11543; 4408.1402438394
75.33; 99.364257; 4509.2887695594
76.35; 99.432441; 4610.5067035123
77.36; 100.44427; 4712.7546393554
78.38; 102.3285; 4816.9206364244
79.40; 104.8698; 4923.6735723998
80.42; 107.80263; 5033.4119983151
81.44; 110.90639; 5146.3099191206
82.45; 114.06136; 5262.4194667056
83.47; 117.24228; 5381.76704793
84.49; 120.4547; 5504.3847365077
85.51; 123.64584; 5630.2508664027
86.53; 126.63484; 5759.1596722491
87.54; 129.10179; 5890.5797199821
88.56; 130.6511; 6023.5769007747
89.58; 130.93343; 6156.8614795407
90.60; 129.78293; 6288.9749050298
91.62; 127.31613; 6418.577227556
92.63; 123.94866; 6544.7516100816
93.65; 120.31456; 6667.2266448876
94.67; 117.10779; 6786.4373225823
95.69; 114.89468; 6903.395147854
96.71; 113.95798; 7019.3994556629
97.72; 114.22296; 7135.6735022927
98.74; 115.28873; 7253.0324532286
99.76; 116.55319; 7371.6785703154
100.78; 117.39055; 7491.1770861787
101.80; 117.326; 7610.6098912032
102.81; 116.15683; 7728.8525293543
103.83; 113.98968; 7844.889099909
104.85; 111.19124; 7958.0769853087
105.87; 108.27505; 8068.2963133026
106.89; 105.7619; 8175.9573656966
107.90; 104.05348; 8281.8793169028
108.92; 103.34901; 8387.0841537057
109.94; 103.61922; 8492.5640499973
110.96; 104.63553; 8599.0784995436
111.98; 106.04062; 8707.0232714324
112.99; 107.44015; 8816.3927035451
114.01; 108.49448; 8926.8354048631
115.03; 108.99223; 9037.7847878226
116.05; 108.89193; 9148.6320714483
117.07; 108.32451; 9258.9017441811
118.08; 107.55593; 9368.3890351286
119.10; 106.91758; 9477.2265206972
120.12; 106.71945; 9585.8623129362
121.14; 107.16637; 9694.9530484616
122.15; 108.29881; 9805.196558862
123.17; 109.97435; 9917.1457023071
124.19; 111.89594; 10031.050939734
125.21; 113.67985; 10146.772126183
126.23; 114.94493; 10263.78110081
127.24; 115.39824; 10381.251532721
128.26; 114.89433; 10498.209004275
129.28; 113.45367; 10613.699942561
130.30; 111.23957; 10726.937029582
131.32; 108.50526; 10837.390705229
132.33; 105.53075; 10944.816454207
133.35; 102.57008; 11049.228373246
134.37; 99.823104; 11150.843985783
135.39; 97.435537; 11250.029157425
136.41; 95.520692; 11347.265099635
137.42; 94.188966; 11443.145402301
138.44; 93.569838; 11538.395460084
139.46; 93.815015; 11633.895096939
140.48; 95.078835; 11730.681247676
141.50; 97.480311; 11829.911998028
142.51; 101.05759; 11932.78426335
143.53; 105.72858; 12040.411397375
144.55; 111.27067; 12153.680140368
145.57; 117.32823; 12273.115216204
146.59; 123.45045; 12398.78244717
147.60; 129.15509; 12530.256757833
148.62; 134.00744; 12666.670549088
149.64; 137.69936; 12806.842552339
150.66; 140.11183; 12949.470354139
151.68; 141.34637; 13093.354857757
152.69; 141.71589; 13237.615520291
153.71; 141.694; 13381.853893763
154.73; 141.83005; 13526.230765754
155.75; 142.64568; 13671.437909223
156.77; 144.53277; 13818.566036343
157.78; 147.67391; 13968.891707008
158.80; 152.00202; 14123.623200808
159.82; 157.20894; 14283.655114521
160.84; 162.80309; 14449.381637125
161.86; 168.20671; 14620.608807402
162.87; 172.87489; 14796.587981794
163.89; 176.41327; 14976.169082794
164.91; 178.66959; 15158.047019902
165.93; 179.77767; 15341.0529311
166.94; 180.14111; 15524.428811885
167.96; 180.35661; 15708.024055002
168.98; 181.09151; 15892.367396034
170.00; 182.94341; 16078.595889288
171.02; 186.31604; 16268.257574412
172.03; 191.34332; 16463.036819537
173.05; 197.88056; 16664.470694129
174.07; 205.56205; 16873.723992629
175.09; 213.90393; 17091.468960456
176.11; 222.4174; 17317.880277731
177.12; 230.69632; 17552.719181531
178.14; 238.45563; 17795.456722263
179.16; 245.51898; 18045.384451614
180.18; 251.77611; 18301.681670352
181.20; 257.14293; 18563.442077102
182.21; 261.55437; 18829.693134575
183.23; 265.00127; 19099.452995714
184.25; 267.59635; 19371.854531198
185.27; 269.63211; 19646.328386122
186.29; 271.58795; 19922.793202458
187.30; 274.05819; 20201.772613397
188.32; 277.60506; 20484.362588811
189.34; 282.57687; 20772.013652597
190.36; 288.95609; 21066.158487396
191.38; 296.30256; 21367.781705622
192.39; 303.82957; 21677.067099681
193.41; 310.60464; 21993.249224006
194.43; 315.81889; 22314.739229989
195.45; 319.03955; 22639.507724226
196.47; 320.36118; 22965.6215832
197.48; 320.40447; 23291.779507568
198.50; 320.16395; 23617.692588569
199.52; 320.75805; 23944.21044076
200.54; 323.16564; 24273.17911264
201.56; 328.03136; 24607.100880582
202.57; 335.58999; 24948.717005659
203.59; 345.71119; 25300.636075812
204.61; 358.02197; 25665.086993116
205.63; 372.04166; 26043.809348533
206.65; 387.27134; 26438.034864197
207.66; 403.211; 26848.486260876
208.68; 419.31725; 27275.333124256
209.70; 434.94501; 27718.08837735
210.72; 449.32415; 28175.480971703
211.74; 461.6053; 28645.375244474
212.75; 470.97631; 29124.808805816
213.77; 476.81713; 29610.188069864
214.79; 478.8412; 30097.627752425
215.81; 477.17351; 30583.369791674
216.82; 472.33665; 31064.188123224
217.84; 465.14761; 31537.688319486
218.86; 456.55533; 32002.441947504
219.88; 447.46415; 32457.941147519
220.90; 438.5859; 32904.402664973
221.91; 430.34919; 33342.47956898
222.93; 422.87536; 33772.9484348
223.95; 416.01423; 34196.432967791
224.97; 409.42415; 34613.209089739
225.99; 402.67803; 35023.117949886
227.00; 395.37744; 35425.595126338
228.02; 387.25697; 35819.806008334
229.04; 378.25955; 36204.857907157
230.06; 368.56417; 36580.040325252
231.08; 358.55265; 36945.031448479
232.09; 348.71566; 37300.008946264
233.11; 339.51663; 37645.622224507
234.13; 331.25023; 37982.820663432
235.15; 323.94139; 38312.579018176
236.17; 317.32448; 38635.601641955
237.18; 310.92054; 38952.105339729
238.20; 304.19867; 39261.766461346
239.22; 296.77685; 39563.87249087
240.24; 288.60014; 39857.65498164
241.26; 280.03642; 40142.719970311
242.27; 271.85319; 40419.454784125
243.29; 265.07482; 40689.289509692
244.31; 260.75601; 40954.727877566
245.33; 259.7322; 41219.12405417
246.35; 262.41303; 41486.249196703
247.36; 268.67075; 41759.744431
248.38; 277.84743; 42042.581124368
249.40; 288.8725; 42336.640861939
250.42; 300.45606; 42642.492165875
251.44; 311.30877; 42959.391056881
252.45; 320.33893; 43285.482267465
253.47; 326.78887; 43618.139232533
254.49; 330.29095; 43954.361168011
255.51; 330.84451; 44291.146605908
256.53; 328.73249; 44625.782092976
257.54; 324.40885; 44956.016299193
258.56; 318.3915; 45280.125102795
259.58; 311.1898; 45596.902892181
260.60; 303.28189; 45905.630773751
261.61; 295.13779; 46206.068306552
262.63; 287.2655; 46498.492187453
263.65; 280.24571; 46783.770230802
264.67; 274.72158; 47063.424948393
265.69; 271.32565; 47339.622753298
266.70; 270.55213; 47615.033142328
267.72; 272.6105; 47892.538871501
268.74; 277.31468; 48174.833253297
269.76; 284.0608; 48463.994886301
270.78; 291.92405; 48761.160975989
271.79; 299.86569; 49066.411311399
272.81; 306.99872; 49378.922763711
273.83; 312.83201; 49697.372245931
274.85; 317.40913; 50020.481039635
275.87; 321.28582; 50347.536139967
276.88; 325.3402; 50678.718419925
277.90; 330.46714; 51015.119706189
278.92; 337.25167; 51358.42735004
279.94; 345.72926; 51710.364813183
280.96; 355.31778; 52072.062976892
281.97; 364.95248; 52443.568851942
282.99; 373.38967; 52823.663422855
284.01; 379.58876; 53210.068398335
285.03; 383.05505; 53600.001911663
286.05; 384.03627; 53990.934266333
287.06; 383.51042; 54381.33132359
288.08; 382.96617; 54771.174358458
289.10; 384.03871; 55162.109196355
290.12; 388.10423; 55557.182552273
291.14; 395.94407; 55960.236528439
292.15; 407.56469; 56375.11979623
293.17; 422.21166; 56804.913049062
294.19; 438.56209; 57251.350330879
295.21; 455.0356; 57714.556935798
296.23; 470.14106; 58193.140243314
297.24; 482.7774; 58684.586805571
298.26; 492.42799; 59185.857251243
299.28; 499.21888; 59694.0405312
300.30; 503.84285; 60206.930812628
301.32; 507.37497; 60723.416637248
302.33; 511.01978; 61243.612718041
303.35; 515.83564; 61768.71113903
304.37; 522.48175; 62300.575013336
305.39; 531.02986; 62841.140493567
306.41; 540.87629; 63391.729218993
307.42; 550.77836; 63952.397826101
308.44; 559.02105; 64521.457129816
309.46; 563.69514; 65095.274456032
310.48; 563.04111; 65668.426014489
311.49; 555.79115; 66234.197419457
312.51; 541.43353; 66785.353384935
313.53; 520.3351; 67315.032067112
314.55; 493.68817; 67817.585321431
315.57; 463.29136; 68289.195932363
316.58; 431.21739; 68728.15663031
317.60; 399.44992; 69134.779413206
318.62; 369.57735; 69510.99320533
319.64; 342.61146; 69859.756885214
320.66; 318.95936; 70184.443753478
321.67; 298.53227; 70488.336723822
322.69; 280.93877; 70774.320265804
323.71; 265.69464; 71044.785941943
324.73; 252.38887; 71301.706917392
325.75; 240.7707; 71546.801102304
326.76; 230.75438; 71781.699099525
327.78; 222.3639; 72008.055954536
328.80; 215.65229; 72227.580675681
329.82; 210.62634; 72441.989197893
330.84; 207.19503; 72652.904799915
331.85; 205.14487; 72861.733421105
332.87; 204.13664; 73069.535710122
333.89; 203.71775; 73276.911590709
334.91; 203.34948; 73483.912582295
335.93; 202.45388; 73690.001897988
336.94; 200.48455; 73894.086522317
337.96; 197.01683; 74094.641152075
338.98; 191.84043; 74289.926433766
340.00; 185.02683; 74478.275762545
341.02; 176.94257; 74658.395663294
342.03; 168.19169; 74829.607545498
343.05; 159.49232; 74991.963842569
344.07; 151.51686; 75146.20146361
345.09; 144.74144; 75293.541998946
346.11; 139.35094; 75435.395239975
347.12; 135.22913; 75573.052654971
348.14; 132.03496; 75707.458551415
349.16; 129.33666; 75839.117694759
350.18; 126.75588; 75968.149706808
351.20; 124.07302; 76094.450687477
352.21; 121.26135; 76217.889510184
353.23; 118.44508; 76338.461485863
354.25; 115.80477; 76456.345743069
355.27; 113.47084; 76571.854158617
356.28; 111.44698; 76685.302374557
357.30; 109.59119; 76796.861478846
358.32; 107.65849; 76906.453175469
359.34; 105.3866; 77013.732190115
360.36; 102.59178; 77118.166190052
361.37; 99.240582; 77219.188820213
362.39; 95.474432; 77316.377672433
363.41; 91.58077; 77409.602944447
364.43; 87.922401; 77499.104154259
365.45; 84.847985; 77585.475741403
366.46; 82.609933; 77669.569088645
367.48; 81.311127; 77752.340307037
368.50; 80.891914; 77834.684785329
369.52; 81.157367; 77917.299482935
370.54; 81.834967; 78000.603948123
371.55; 82.646755; 78084.734777858
372.57; 83.378133; 78169.610119682
373.59; 83.927794; 78255.044992411
374.61; 84.328637; 78340.887906282
375.63; 84.736872; 78427.146385655
376.64; 85.393965; 78514.073756936
377.66; 86.572056; 78602.200374133
378.68; 88.516346; 78692.306194722
379.70; 91.397044; 78785.34444158
380.72; 95.279256; 78882.334612931
381.73; 100.11325; 78984.245579248
382.75; 105.74203; 79091.886398419
383.77; 111.92002; 79205.816153763
384.79; 118.3366; 79326.277705672
385.81; 124.64036; 79453.156211676
386.82; 130.46346; 79585.962381889
387.84; 135.44708; 79723.841660738
388.86; 139.26935; 79865.61184563
389.88; 141.67545; 80009.831341852
390.90; 142.50751; 80154.897837747
391.91; 141.73067; 80299.173545296
392.93; 139.45206; 80441.129723278
393.95; 135.93022; 80579.500821152
394.97; 131.57334; 80713.436803028
395.99; 126.9237; 80842.63964962
397.00; 122.62411; 80967.465699756
398.02; 119.36125; 81088.97030658
399.04; 117.78339; 81208.868718221
400.06; 118.39736; 81329.392123261
401.07; 121.46112; 81453.034299273
402.09; 126.89898; 81582.211985266
403.11; 134.27165; 81718.894729348
404.13; 142.82676; 81864.2862065
405.15; 151.63709; 82018.646215734
406.16; 159.80646; 82181.322294697
407.18; 166.69705; 82351.012701439
408.20; 172.11635; 82526.219718806
409.22; 176.40573; 82705.793139451
410.24; 180.39655; 82889.429045623
411.25; 185.23725; 83077.992569275
412.27; 192.13371; 83273.576397325
413.29; 202.07154; 83479.276502712
414.31; 215.59249; 83698.740357007
415.33; 232.67834; 83935.596862339
416.34; 252.75974; 84192.895365709
417.36; 274.83054; 84472.660993135
418.38; 297.62132; 84775.626656892
419.40; 319.77948; 85101.148372198
420.42; 340.01571; 85447.269691472
421.43; 357.20077; 85810.884664606
422.45; 370.42001; 86187.956253138
423.47; 379.00573; 86573.767733863
424.49; 382.56597; 86963.203383309
425.51; 381.01496; 87351.060167789
426.52; 374.59489; 87732.381602183
427.54; 363.86965; 88102.785200456
428.56; 349.67405; 88458.738291883
429.58; 333.01635; 88797.734568101
430.60; 314.94973; 89118.339797665
431.61; 296.44188; 89420.104844243
432.63; 278.27412; 89703.375891588
433.65; 260.99053; 89969.052986503
434.67; 244.90037; 90218.35099728
435.69; 230.11937; 90452.602586304
436.70; 216.62666; 90673.119175335
437.72; 204.3166; 90881.104660894
438.74; 193.03569; 91077.606662004
439.76; 182.60758; 91263.493296824
440.78; 172.85713; 91439.454396952
441.79; 163.64222; 91606.035114669
442.81; 154.89241; 91763.708902403
443.83; 146.64171; 91912.983838595
444.85; 139.03641; 92054.516907452
445.87; 132.30322; 92189.195880637
446.88; 126.67768; 92318.148288548
447.90; 122.31131; 92442.655922194
448.92; 119.19037; 92563.986570559
449.94; 117.10031; 92683.189636564
450.95; 115.65717; 92800.923643984
451.97; 114.40252; 92917.380472991
452.99; 112.9337; 93032.342106252
454.01; 111.02458; 93145.360341013
455.03; 108.69325; 93256.005376416
456.04; 106.19077; 93364.102997104
457.06; 103.91402; 93469.882990307
458.08; 102.27327; 93573.992762452
459.10; 101.56141; 93677.377890372
460.12; 101.87001; 93781.077163306
461.13; 103.07811; 93886.006234814
462.15; 104.91189; 93992.802015378
463.17; 107.04737; 94101.771615421
464.19; 109.21464; 94212.947405465
465.21; 111.26538; 94326.210765
466.22; 113.18296; 94441.426136637
467.24; 115.03883; 94558.530699481
468.26; 116.91943; 94677.549636642
469.28; 118.85693; 94798.540858005
470.30; 120.79189; 94921.501787311
471.31; 122.58061; 95046.283560861
472.33; 124.04056; 95172.55150061
473.35; 125.01368; 95299.810031717
474.37; 125.4233; 95427.485542487
475.39; 125.30681; 95555.042472415
476.40; 124.81838; 95682.102196884
477.42; 124.20795; 95808.540527672
478.44; 123.78852; 95934.551894628
479.46; 123.90196; 96060.678744321
480.48; 124.88676; 96187.808074173
481.49; 127.04381; 96317.133191946
482.51; 130.59442; 96450.072676077
483.53; 135.62903; 96588.137180545
484.55; 142.05516; 96732.743202039
485.57; 149.562; 96884.990867127
486.58; 157.62255; 97045.443821509
487.60; 165.54694; 97213.963460826
488.62; 172.58555; 97389.648102682
489.64; 178.06142; 97570.906941978
490.66; 181.49734; 97755.663406934
491.67; 182.7002; 97941.644326635
492.69; 181.77569; 98126.684131809
493.71; 179.06831; 98308.967942104
494.73; 175.04562; 98487.156831338
495.74; 170.16405; 98660.376488914
496.76; 164.75858; 98828.093616652
497.78; 158.98905; 98989.937610874
498.80; 152.85487; 99145.537277405
499.82; 146.2667; 99294.430464588
500.83; 139.14522; 99436.074298261
501.85; 131.51111; 99569.946932292
502.87; 123.53613; 99695.701379822
503.89; 115.54131; 99813.317443241
504.91; 107.94603; 99923.201845089
505.92; 101.1867; 100026.2055415
506.94; 95.629989; 100123.55274399
507.96; 91.503663; 100216.69952433
508.98; 88.859466; 100307.15462651
510.00; 87.571825; 100396.29896575
511.01; 87.367071; 100485.23487425
512.03; 87.872635; 100574.68542477
513.05; 88.674688; 100664.95243112
514.07; 89.374732; 100755.93205196
515.09; 89.638783; 100847.18046521
516.10; 89.235476; 100938.01832885
517.12; 88.060749; 101027.66037149
518.14; 86.146985; 101115.35428502
519.16; 83.654382; 101200.5108359
520.18; 80.843123; 101282.80564642
521.19; 78.027402; 101362.23417488
522.21; 75.516648; 101439.1068635
523.23; 73.554345; 101513.98201278
524.25; 72.268698; 101587.54842885
525.27; 71.649606; 101660.48463618
526.28; 71.561493; 101733.33114774
527.30; 71.791558; 101806.41185576
528.32; 72.120745; 101879.82766218
529.34; 72.394673; 101953.52231484
530.36; 72.568918; 102027.39434211
531.37; 72.710198; 102101.41018592
532.39; 72.95101; 102175.67116583
533.41; 73.414727; 102250.40418997
534.43; 74.142681; 102325.87824031
535.45; 75.057113; 102402.28314239
536.46; 75.981084; 102479.62860744
537.48; 76.71243; 102557.71855085
538.50; 77.123274; 102636.22671526
539.52; 77.24138; 102714.85510677
540.54; 77.272948; 102793.51563337
541.55; 77.548845; 102872.45701138
542.57; 78.409158; 102952.27415052
543.59; 80.069929; 103033.78188339
544.61; 82.527265; 103117.79107754
545.62; 85.541131; 103204.86825719
546.64; 88.708642; 103295.16982683
547.66; 91.598428; 103388.41307389
548.68; 93.891206; 103483.99026985
549.70; 95.469478; 103581.17407871
550.71; 96.422749; 103679.32827614
551.73; 96.973144; 103778.04275199
552.75; 97.36184; 103877.15290357
553.77; 97.752658; 103976.66089138
554.79; 98.198316; 104076.62254002
555.80; 98.682894; 104177.07746806
556.82; 99.216811; 104278.07590037
557.84; 99.935909; 104379.80634298
558.86; 101.15523; 104482.77800465
559.88; 103.34989; 104587.98373764
560.89; 107.06805; 104696.97439542
561.91; 112.80826; 104811.80833683
562.93; 120.90323; 104934.8826045
563.95; 131.44264; 105068.68553598
564.97; 144.24752; 105215.52328693
565.98; 158.89063; 105377.26709419
567.00; 174.75048; 105555.15553986
568.02; 191.09107; 105749.67800175
569.04; 207.16635; 105960.56440983
570.06; 222.34665; 106186.90370904
571.07; 236.24959; 106427.39559586
572.09; 248.83657; 106680.70048359
573.11; 260.42388; 106945.80075628
574.13; 271.57054; 107222.24784874
575.15; 282.84781; 107510.17471118
576.16; 294.55407; 107810.0180407
577.18; 306.48507; 108122.00661759
578.20; 317.87351; 108445.58813713
579.22; 327.55982; 108779.02989602
580.24; 334.36153; 109119.39550616
581.25; 337.51192; 109462.96807145
582.27; 336.98846; 109806.00778598
583.29; 333.58279; 110145.58066641
584.31; 328.6713; 110480.15386323
