#Wavenumber (cm^-1); Spectrum (K*cm*km*mol^-1); Integral (K*km*mol^-1)
0.00; 7.3273202; 7.4588957644105
1.02; 7.7032813; 15.300503758313
2.04; 8.7986153; 24.257114446818
3.05; 10.52234; 34.968402179162
4.07; 12.743489; 47.940724243681
5.09; 15.317019; 63.532788514561
6.11; 18.110965; 81.968969126043
7.13; 21.028198; 103.37476700025
8.14; 24.017297; 127.82333890648
9.16; 27.069803; 155.37922992336
10.18; 30.204842; 186.1264555092
11.20; 33.445902; 220.17294062329
12.22; 36.797218; 257.63092088427
13.23; 40.227834; 298.58111965941
14.25; 43.669451; 343.03473646562
15.27; 47.030006; 390.90925276811
16.29; 50.219644; 442.0306834035
17.31; 53.181135; 496.16678394286
18.32; 55.914352; 553.08518097189
19.34; 58.485429; 612.6208239105
20.36; 61.015491; 674.73196044735
21.38; 63.650281; 739.52519999261
22.40; 66.518579; 807.23824323358
23.41; 69.691631; 878.18131619702
24.43; 73.156392; 952.65136623456
25.45; 76.811687; 1030.8423492875
26.47; 80.489543; 1112.7772309887
27.48; 83.996124; 1198.2816603369
28.50; 87.160554; 1287.0073436554
29.52; 89.877511; 1378.4987716125
30.54; 92.131609; 1472.2847739889
31.56; 93.997554; 1567.9702273467
32.57; 95.61759; 1665.3048083378
33.59; 97.164402; 1764.213976267
34.61; 98.801034; 1864.789165282
35.63; 100.6488; 1967.2453011425
36.65; 102.76997; 2071.8606945387
37.66; 105.16632; 2178.9154679825
38.68; 107.78964; 2288.6406711151
39.70; 110.55776; 2401.1837013302
40.72; 113.37028; 2516.5897498525
41.74; 116.12118; 2634.7960953136
42.75; 118.70898; 2755.6367152019
43.77; 121.04715; 2878.8574900331
44.79; 123.07712; 3004.1446890517
45.81; 124.78367; 3131.1690817389
46.83; 126.20861; 3259.6440033935
47.84; 127.45646; 3389.3891753004
48.86; 128.68594; 3520.3859123303
49.88; 130.08507; 3652.8069019649
50.90; 131.83307; 3787.0072777919
51.92; 134.05864; 3923.4731879924
52.93; 136.807; 4062.7368088994
53.95; 140.02707; 4205.2783269859
54.97; 143.58461; 4351.441263962
55.99; 147.29859; 4501.3848728951
57.01; 150.99027; 4655.0864510885
58.02; 154.5294; 4812.3907079766
59.04; 157.86277; 4973.0881988729
60.06; 161.01615; 5136.9956936637
61.08; 164.06967; 5304.0115369641
62.10; 167.11613; 5474.1285439984
63.11; 170.21723; 5647.4023348674
64.13; 173.37311; 5823.888683944
65.15; 176.51551; 6003.5738556076
66.17; 179.52588; 6186.3234595021
67.19; 182.27138; 6371.8678551409
68.20; 184.64515; 6559.8286496781
69.22; 186.59716; 6749.7765060154
70.24; 188.14551; 6941.3005183228
71.26; 189.3662; 7134.067143086
72.27; 190.36685; 7327.852378276
73.29; 191.25513; 7522.5418446125
74.31; 192.11351; 7718.1051109879
75.33; 192.98794; 7914.5585079046
76.35; 193.89185; 8111.9320419379
77.36; 194.82047; 8310.2508779505
78.38; 195.76663; 8509.5328557796
79.40; 196.72931; 8709.7948009008
80.42; 197.71081; 8911.0558779957
81.44; 198.704; 9113.3279726389
82.45; 199.67686; 9316.5904046916
83.47; 200.56412; 9520.7560281494
84.49; 201.2733; 9725.6435665683
85.51; 201.70743; 9930.9730269698
86.53; 201.79887; 10136.395565711
87.54; 201.54296; 10341.557597588
88.56; 201.01803; 10546.185272859
89.58; 200.38148; 10750.164977248
90.60; 199.8393; 10953.592761534
91.62; 199.59564; 11156.7725086
92.63; 199.79735; 11360.157590946
93.65; 200.49121; 11564.248994183
94.67; 201.60881; 11769.478064453
95.69; 202.98555; 11976.108595125
96.71; 204.40902; 12184.188156515
97.72; 205.68205; 12393.563608933
98.74; 206.68053; 12603.955473602
99.76; 207.38756; 12815.067064353
100.78; 207.89315; 13026.69332222
101.80; 208.35992; 13238.794729101
102.81; 208.96603; 13451.513126247
103.83; 209.84338; 13665.124629963
104.85; 211.02983; 13879.943892547
105.87; 212.44883; 14096.207633519
106.89; 213.92087; 14313.969848553
107.90; 215.20175; 14533.035941175
108.92; 216.03566; 14752.950917846
109.94; 216.20891; 14973.042255586
110.96; 215.59198; 15192.505587686
111.98; 214.16261; 15410.513885493
112.99; 212.00814; 15626.329022115
114.01; 209.30969; 15839.397250349
115.03; 206.31311; 16049.415096958
116.05; 203.29205; 16256.357632951
117.07; 200.50805; 16460.466177125
118.08; 198.17261; 16662.197347422
119.10; 196.41608; 16862.140445805
120.12; 195.26858; 17060.91543037
121.14; 194.65737; 17259.068237486
122.15; 194.42281; 17456.98226381
123.17; 194.35057; 17654.822756645
124.19; 194.2139; 17852.524125325
125.21; 193.81554; 18049.819980487
126.23; 193.01894; 18246.304931206
127.24; 191.76113; 18441.509488107
128.26; 190.04571; 18634.967815273
129.28; 187.92119; 18826.26348089
130.30; 185.45535; 19015.049025693
131.32; 182.71705; 19201.047101655
132.33; 179.77404; 19384.04931506
133.35; 176.70757; 19563.929997955
134.37; 173.6369; 19740.684872695
135.39; 170.7404; 19914.491233829
136.41; 168.25917; 20085.77180589
137.42; 166.4736; 20255.234751933
138.44; 165.6527; 20423.862049226
139.46; 165.98648; 20592.829126124
140.48; 167.52058; 20763.357842692
141.50; 170.11428; 20936.526836266
142.51; 173.43942; 21113.080681455
143.53; 177.02641; 21293.285924905
144.55; 180.35027; 21476.874716737
145.57; 182.93704; 21663.096728272
146.59; 184.46361; 21850.872725303
147.60; 184.82488; 22039.016481454
148.62; 184.15037; 22226.47360984
149.64; 182.76627; 22412.521783515
150.66; 181.11385; 22596.887864727
151.68; 179.64646; 22779.760208847
152.69; 178.73224; 22961.701913085
153.71; 178.58613; 23143.494886117
154.73; 179.245; 23325.958563149
155.75; 180.58629; 23509.787616504
156.77; 182.37866; 23695.441227242
157.78; 184.34578; 23883.097278388
158.80; 186.22376; 24072.665029512
159.82; 187.79849; 24263.835784097
160.84; 188.91835; 24456.146513951
161.86; 189.4873; 24649.036409582
162.87; 189.44919; 24841.887508569
163.89; 188.77529; 25034.052611175
164.91; 187.46265; 25224.881504136
165.93; 185.54379; 25413.757080732
166.94; 183.10143; 25600.146435445
167.96; 180.2779; 25783.661557066
168.98; 177.26985; 25964.114613131
170.00; 174.30393; 26141.548493632
171.02; 171.59685; 26316.226685352
172.03; 169.31012; 26488.57707705
173.05; 167.51342; 26659.098509421
174.07; 166.16937; 26828.251756226
175.09; 165.14612; 26996.363383043
176.11; 164.25591; 27163.568814809
177.12; 163.3089; 27329.810232777
178.14; 162.16666; 27494.888892942
179.16; 160.7793; 27658.555281749
180.18; 159.19556; 27820.609495219
181.20; 157.54347; 27980.981945192
182.21; 155.98862; 28139.771633325
183.23; 154.68404; 28297.233307222
184.25; 153.72728; 28453.721048803
185.27; 153.13791; 28609.608830034
186.29; 152.86041; 28765.214127152
187.30; 152.78955; 28920.74729982
188.32; 152.80751; 29076.298751578
189.34; 152.81912; 29231.862026067
190.36; 152.77368; 29387.379042395
191.38; 152.66732; 29542.787783653
192.39; 152.52793; 29698.054636115
193.41; 152.39085; 29853.181943151
194.43; 152.27616; 30008.192502306
195.45; 152.17703; 30163.102147675
196.47; 152.06293; 30317.895653686
197.48; 151.89556; 30472.51878293
198.50; 151.65001; 30626.891952982
199.52; 151.33284; 30780.942250706
200.54; 150.99068; 30934.644244121
201.56; 150.7082; 31088.058684508
202.57; 150.59875; 31241.361715126
203.59; 150.79367; 31394.86316377
204.61; 151.43483; 31549.017286229
205.63; 152.67123; 31704.430013474
206.65; 154.65553; 31861.86266716
207.66; 157.53391; 32022.225390734
208.68; 161.42427; 32186.548334361
209.70; 166.38309; 32355.919141053
210.72; 172.36925; 32531.383594853
211.74; 179.2191; 32713.820908705
212.75; 186.64847; 32903.820998443
213.77; 194.29144; 33101.601297713
214.79; 201.77468; 33306.99921412
215.81; 208.81206; 33519.560876103
216.82; 215.29341; 33738.720273069
217.84; 221.33817; 33964.032980158
218.86; 227.29115; 34195.405561448
219.88; 233.65327; 34433.254502764
220.90; 240.96018; 34678.54157068
221.91; 249.63932; 34932.663628093
222.93; 259.88524; 35197.215584975
223.95; 271.59044; 35473.682934372
224.97; 284.35399; 35763.143028509
225.99; 297.5676; 36066.054002496
227.00; 310.55563; 36382.186235183
228.02; 322.72873; 36710.710159417
229.04; 333.70587; 37050.408334142
230.06; 343.36877; 37399.942925891
231.08; 351.83271; 37758.093439653
232.09; 359.34277; 38123.888868671
233.11; 366.12749; 38496.590859421
234.13; 372.25516; 38875.530549526
235.15; 377.53797; 39259.847909578
236.17; 381.51639; 39648.215133937
237.18; 383.53303; 40038.635208505
238.20; 382.87968; 40428.39020562
239.22; 378.98004; 40814.175527644
240.24; 371.55922; 41192.406779841
241.26; 360.75408; 41559.638867805
242.27; 347.13298; 41913.005263226
243.29; 331.61779; 42250.577866158
244.31; 315.32642; 42571.566554395
245.33; 299.37481; 42876.31718877
246.35; 284.68734; 43166.116611672
247.36; 271.86101; 43442.859393411
248.38; 261.11306; 43708.661223263
249.40; 252.31801; 43965.510064373
250.42; 245.11602; 44215.027594188
251.44; 239.05606; 44458.376349938
252.45; 233.73063; 44696.304041798
253.47; 228.86538; 44929.279126383
254.49; 224.34436; 45157.652007771
255.51; 220.17369; 45381.77931991
256.53; 216.40695; 45602.072254267
257.54; 213.06644; 45818.964694432
258.56; 210.09294; 46032.830241275
259.58; 207.34363; 46243.897109548
260.60; 204.63771; 46452.209466993
261.61; 201.83007; 46657.663770075
262.63; 198.88203; 46860.117095096
263.65; 195.89901; 47059.533835788
264.67; 193.11796; 47256.119588407
265.69; 190.84709; 47450.393694832
266.70; 189.37962; 47643.173977002
267.72; 188.91385; 47835.480127646
268.74; 189.50983; 48028.39295244
269.76; 191.09825; 48222.92272559
270.78; 193.53648; 48419.93451186
271.79; 196.68679; 48620.153172665
272.81; 200.48255; 48824.235759878
273.83; 204.95225; 49032.868304145
274.85; 210.18794; 49246.830556958
275.87; 216.26841; 49466.982469025
276.88; 223.16738; 49694.157228942
277.90; 230.68665; 49928.986286838
278.92; 238.4484; 50171.716471308
279.94; 245.96109; 50422.094247241
280.96; 252.74762; 50679.380420028
281.97; 258.50045; 50942.522720977
282.99; 263.21555; 51210.464789695
284.01; 267.25976; 51482.523688534
285.03; 271.34277; 51758.738915816
286.05; 276.39092; 52040.092945266
287.06; 283.34657; 52328.527529819
288.08; 292.93688; 52626.72463758
289.10; 305.46448; 52937.674301641
290.12; 320.66855; 53264.101043563
291.14; 337.69024; 53607.855137611
292.15; 355.15549; 53969.388105279
293.17; 371.36463; 54347.42127588
294.19; 384.55722; 54738.883935293
295.21; 393.20423; 55139.148873302
296.23; 396.27161; 55542.536273489
297.24; 393.40183; 55943.002357805
298.26; 384.97326; 56334.888521626
299.28; 372.0214; 56713.590249445
300.30; 356.03564; 57076.019166402
301.32; 338.67483; 57420.775528393
302.33; 321.46537; 57748.013407837
303.35; 305.55078; 58059.050915037
304.37; 291.54798; 58355.834173974
305.39; 279.53671; 58640.390484789
306.41; 269.17168; 58914.395637649
307.42; 259.87453; 59178.936690963
308.44; 251.04461; 59434.489267851
309.46; 242.22889; 59681.067825092
310.48; 233.21164; 59918.4672138
311.49; 224.01504; 60146.504857331
312.51; 214.83149; 60365.194040454
313.53; 205.9267; 60574.8185358
314.55; 197.55402; 60775.920001436
315.57; 189.90661; 60969.236734784
316.58; 183.11262; 61155.637477559
317.60; 177.2586; 61336.079084114
318.62; 172.41703; 61511.592184887
319.64; 168.65689; 61683.277617956
320.66; 166.02936; 61852.288338262
321.67; 164.53648; 62019.779373992
322.69; 164.1008; 62186.826904401
323.71; 164.55481; 62354.336596935
324.73; 165.65986; 62522.97118189
325.75; 167.15034; 62693.123015394
326.76; 168.7873; 62864.94120071
327.78; 170.40132; 63038.402390898
328.80; 171.90966; 63213.399004831
329.82; 173.30375; 63389.814742689
330.84; 174.61552; 63567.565806633
331.85; 175.87829; 63746.602319003
332.87; 177.09795; 63926.880385064
333.89; 178.24328; 64108.324348246
334.91; 179.25514; 64290.798341211
335.93; 180.06659; 64474.098360618
336.94; 180.6242; 64657.966004875
337.96; 180.90347; 64842.117926915
338.98; 180.9168; 65026.283421573
340.00; 180.71662; 65210.245140157
341.02; 180.39654; 65393.88103813
342.03; 180.091; 65577.205902989
343.05; 179.96985; 65760.407446063
344.07; 180.22392; 65943.867614897
345.09; 181.04042; 66128.158950921
346.11; 182.57434; 66314.011755241
347.12; 184.92743; 66502.25990218
348.14; 188.14767; 66693.78611307
349.16; 192.25518; 66889.49358531
350.18; 197.28758; 67090.323825596
351.20; 203.34453; 67297.319785716
352.21; 210.60429; 67511.705860497
353.23; 219.29089; 67734.934522509
354.25; 229.58906; 67968.646282399
355.27; 241.52879; 68214.512163565
356.28; 254.88307; 68473.972128899
357.30; 269.12918; 68747.934020769
358.32; 283.50951; 69036.534470476
359.34; 297.19579; 69339.066956078
360.36; 309.5196; 69654.144555566
361.37; 320.19924; 69980.093562596
362.39; 329.4813; 70315.491309184
363.41; 338.13385; 70659.696977222
364.43; 347.27115; 71013.204021582
365.45; 358.04586; 71377.679258365
366.46; 371.29277; 71755.639278787
367.48; 387.23142; 72149.824150751
368.50; 405.32368; 72562.426165369
369.52; 424.33894; 72994.384899352
370.54; 442.6173; 73444.950209662
371.55; 458.46083; 73911.643553244
372.57; 470.54372; 74390.636754272
373.59; 478.22594; 74877.450128601
374.61; 481.68442; 75367.784079711
375.63; 481.82903; 75858.265242992
376.64; 480.03272; 76346.917834665
377.66; 477.75515; 76833.251961727
378.68; 476.16535; 77317.967738172
379.70; 475.86299; 77802.375725397
380.72; 476.76584; 78287.702773895
381.73; 478.18199; 78774.47140396
382.75; 479.03558; 79262.108955026
383.77; 478.17682; 79748.872324993
384.79; 474.69061; 80232.086883417
385.81; 468.12528; 80708.618221445
386.82; 458.58972; 81175.442769457
387.84; 446.70479; 81630.168971689
388.86; 433.43273; 82071.384783361
389.88; 419.83642; 82498.760146976
390.90; 406.83341; 82912.898999091
391.91; 395.00488; 83314.996922781
392.93; 384.50204; 83706.403411065
393.95; 375.06513; 84088.203528283
394.97; 366.14315; 84460.921456547
395.99; 357.07986; 84824.413343441
397.00; 347.3186; 85177.968690867
398.02; 336.57702; 85520.589577781
399.04; 324.95121; 85851.375885566
400.06; 312.92546; 86169.920500456
401.07; 301.28515; 86476.615780549
402.09; 290.95157; 86772.791927656
403.11; 282.77594; 87060.6456302
404.13; 277.34006; 87342.965847638
405.15; 274.81172; 87622.712322971
406.16; 274.89119; 87902.539696318
407.18; 276.86468; 88184.37599434
408.20; 279.75404; 88469.153538793
409.22; 282.52779; 88756.754633858
410.24; 284.32253; 89046.182697852
411.25; 284.62224; 89335.915858836
412.27; 283.35535; 89624.359373242
413.29; 280.89309; 89910.296413521
414.31; 277.95914; 90193.246826808
415.33; 275.48104; 90473.674638127
416.34; 274.42287; 90753.025277202
417.36; 275.63447; 91033.609276753
418.38; 279.73853; 91318.371025859
419.40; 287.06123; 91610.586973128
420.42; 297.60175; 91913.532710465
421.43; 311.03379; 92230.151682527
422.45; 326.73851; 92562.757387687
423.47; 343.87506; 92912.807359418
424.49; 361.49636; 93280.795050657
425.51; 378.70893; 93666.304400847
426.52; 394.85697; 94068.251755197
427.54; 409.68992; 94485.298417105
428.56; 423.46006; 94916.362490012
429.58; 436.90041; 95361.108252386
430.60; 451.05833; 95820.266169857
431.61; 467.00105; 96295.653089921
432.63; 485.45385; 96789.824157191
433.65; 506.46492; 97305.383590595
434.67; 529.19869; 97844.085024501
435.69; 551.93573; 98405.931781818
436.70; 572.3069; 98988.51551153
437.72; 587.72493; 99586.794127608
438.74; 595.91733; 100193.41225929
439.76; 595.42932; 100799.53361243
440.78; 585.96556; 101396.02126631
441.79; 568.478; 101974.7073411
442.81; 544.97299; 102529.46633304
443.83; 518.08708; 103056.85662617
444.85; 490.54428; 103556.20953352
445.87; 464.6392; 104029.19218893
446.88; 441.87956; 104479.0065128
447.90; 422.87059; 104909.47052588
448.92; 407.44835; 105324.23536011
449.94; 394.99278; 105726.32096526
450.95; 384.80039; 106118.03115682
451.97; 376.38778; 106501.17767302
452.99; 369.6344; 106877.44953705
454.01; 364.74098; 107248.74011754
455.03; 362.05316; 107617.29460926
456.04; 361.84808; 107985.64034132
457.06; 364.18654; 108356.36652062
458.08; 368.89214; 108731.8827969
459.10; 375.6525; 109114.28082712
460.12; 384.17611; 109505.35552865
461.13; 394.31332; 109906.74947481
462.15; 406.07448; 110320.11576759
463.17; 419.54243; 110747.19185667
464.19; 434.74788; 111189.74644017
465.21; 451.61454; 111649.47055622
466.22; 470.05981; 112127.97115619
467.24; 490.25656; 112627.03117866
468.26; 512.95725; 113149.19952551
469.28; 539.70702; 113698.59798566
470.30; 572.77812; 114281.66139513
471.31; 614.76126; 114907.46182947
472.33; 667.92118; 115587.37677173
473.35; 733.5909; 116334.14065377
474.37; 811.95439; 117160.67518987
475.39; 902.48727; 118079.36828996
476.40; 1005.086; 119102.50249355
477.42; 1121.5894; 120244.23208836
478.44; 1257.1067; 121523.91249806
479.46; 1420.4547; 122969.87412361
480.48; 1623.1527; 124622.1735158
481.49; 1876.8344; 126532.70995944
482.51; 2189.4881; 128761.51439166
483.53; 2561.4492; 131368.95913408
484.55; 2982.3468; 134404.85949284
485.57; 3430.1123; 137896.56579065
486.58; 3872.6836; 141838.79054188
487.60; 4272.314; 146187.82179643
488.62; 4591.6363; 150861.90945575
489.64; 4800.092; 155748.19593857
490.66; 4879.1882; 160714.99898629
491.67; 4825.3501; 165626.99717928
492.69; 4649.781; 170360.27359949
493.71; 4375.5385; 174814.38297958
494.73; 4032.7173; 178919.5151591
495.74; 3653.0122; 182638.12391008
496.76; 3264.9271; 185961.67886103
497.78; 2890.5456; 188904.1295114
498.80; 2544.2304; 191494.04627413
499.82; 2233.0753; 193767.22059739
500.83; 1958.5373; 195760.92705664
501.85; 1718.5368; 197510.32339282
502.87; 1509.4007; 199046.82820446
503.89; 1327.2619; 200397.92354267
504.91; 1168.8067; 201587.71830866
505.92; 1031.4759; 202637.7163148
506.94; 913.33072; 203567.44757585
507.96; 812.79143; 204394.8341822
508.98; 728.39268; 205136.30650208
510.00; 658.61461; 205806.74775114
511.01; 601.79569; 206419.34979674
512.03; 556.11117; 206985.44697275
513.05; 519.60548; 207514.3829318
514.07; 490.27579; 208013.46252821
515.09; 466.20115; 208488.03517902
516.10; 445.69649; 208941.73496947
517.12; 427.45272; 209376.86338983
518.14; 410.6181; 209794.85489415
519.16; 394.78961; 210196.73368074
520.18; 379.91333; 210583.46906083
521.19; 366.12634; 210956.16987739
522.21; 353.59352; 211316.1128213
523.23; 342.39105; 211664.65213388
524.25; 332.46501; 212003.08717156
525.27; 323.66029; 212332.55937643
526.28; 315.78718; 212654.01709515
527.30; 308.68344; 212968.24351567
528.32; 302.23998; 213275.91077234
529.34; 296.38293; 213577.61580707
530.36; 291.02976; 213873.87154172
531.37; 286.0506; 214165.05870463
532.39; 281.26265; 214451.37194533
533.41; 276.46786; 214732.80429256
534.43; 271.52163; 215009.20159395
535.45; 266.40391; 215280.38927767
536.46; 261.26026; 215546.34094769
537.48; 256.39139; 215807.33632035
538.50; 252.18926; 216064.05410359
539.52; 249.03845; 216317.56449892
540.54; 247.21523; 216569.21893653
541.55; 246.81849; 216820.46950948
542.57; 247.75663; 217072.67507041
543.59; 249.79583; 217326.95644228
544.61; 252.6539; 217584.14720986
545.62; 256.10749; 217844.8535862
546.64; 260.07361; 218109.59729865
547.66; 264.63365; 218378.98293947
548.68; 269.98744; 218653.81850675
549.70; 276.35114; 218935.13204203
550.71; 283.8372; 219224.06605863
551.73; 292.36616; 219521.68219347
552.75; 301.65256; 219828.75148266
553.77; 311.28034; 220145.62143311
554.79; 320.8467; 220472.22952718
555.80; 330.12228; 220808.27976166
556.82; 339.1661; 221153.53621241
557.84; 348.35401; 221508.1455596
558.86; 358.32352; 221872.90343955
559.88; 369.88666; 222249.43210266
560.89; 383.98983; 222640.31717804
561.91; 401.7842; 223049.31615491
562.93; 424.80942; 223481.75380882
563.95; 455.20604; 223945.13391964
564.97; 495.79865; 224449.83555242
565.98; 549.87337; 225009.58291173
567.00; 620.53902; 225641.26485335
568.02; 709.70378; 226363.71267391
569.04; 816.87782; 227195.25904863
570.06; 938.15904; 228150.26446477
571.07; 1065.8053; 229235.20822005
572.09; 1188.7026; 230445.25612623
573.11; 1293.8137; 231762.30262138
574.13; 1368.3948; 233155.2695077
575.15; 1402.4991; 234582.95303605
576.16; 1391.1371; 235999.07058417
577.18; 1335.5039; 237358.55593418
578.20; 1242.9032; 238623.77778346
579.22; 1125.3495; 239769.33504999
580.24; 997.1894; 240784.43082645
581.25; 872.34823; 241672.44368075
582.27; 761.89101; 242448.01585144
583.29; 672.46501; 243132.55620926
584.31; 605.91441; 243749.3509309
