#Wavenumber (cm^-1); Spectrum (K*cm*km*mol^-1); Integral (K*km*mol^-1)
0.00; 218.08671; 222.00286062289
1.02; 229.02312; 455.13851668471
2.04; 261.22457; 721.05385536512
3.05; 312.80384; 1039.4746654212
4.07; 380.47692; 1426.7837479086
5.09; 459.57517; 1894.611443186
6.11; 544.37941; 2448.7661913022
7.13; 628.86272; 3088.9212989217
8.14; 707.74906; 3809.379303563
9.16; 777.61734; 4600.9601968736
10.18; 837.68929; 5453.6917418883
11.20; 889.98631; 6359.6594013107
12.22; 938.72084; 7315.2367113555
13.23; 989.04302; 8322.0398269711
14.25; 1045.498; 9386.3116979702
15.27; 1110.6717; 10516.927562407
16.29; 1184.4597; 11722.656432646
17.31; 1264.1969; 13009.554335387
18.32; 1345.5979; 14379.314935737
19.34; 1424.1876; 15829.076418031
20.36; 1496.7408; 17352.693991891
21.38; 1562.2592; 18943.006395469
22.40; 1622.1822; 20594.317923108
23.41; 1679.8029; 22304.284835896
24.43; 1739.1224; 24074.636365639
25.45; 1803.5563; 25910.578807598
26.47; 1874.9247; 27819.171246298
27.48; 1953.0275; 29807.26894238
28.50; 2035.8812; 31879.708176695
29.52; 2120.4622; 34038.24715564
30.54; 2203.644; 36281.461668639
31.56; 2282.9967; 38605.453796345
32.57; 2357.2155; 41004.99742156
33.59; 2426.13; 43474.69302952
34.61; 2490.4196; 46009.832702677
35.63; 2551.2598; 48606.905113734
36.65; 2610.1069; 51263.881334791
37.66; 2668.7075; 53980.510414682
38.68; 2729.2551; 56758.774332239
39.70; 2794.4881; 59603.442635579
40.72; 2867.5; 62522.433898868
41.74; 2951.137; 65526.564023298
42.75; 3047.0563; 68628.33583387
43.77; 3154.7285; 71839.713351397
44.79; 3270.7953; 75169.241794643
45.81; 3389.1609; 78619.261374219
46.83; 3501.9994; 82184.145614074
47.84; 3601.5394; 85850.357288207
48.86; 3682.1768; 89598.654384943
49.88; 3742.2666; 93408.120247758
50.90; 3784.9678; 97261.054174231
51.92; 3817.7666; 101147.37587198
52.93; 3850.7089; 105067.23140736
53.95; 3893.8096; 109030.96159813
54.97; 3954.3996; 113056.3697884
55.99; 4035.2217; 117164.0513589
57.01; 4133.858; 121372.1404011
58.02; 4243.6397; 125691.98245938
59.04; 4355.7047; 130125.90185677
60.06; 4461.503; 134667.51942757
61.08; 4554.9341; 139304.24576397
62.10; 4633.4713; 144020.91956095
63.11; 4698.0222; 148803.30345357
64.13; 4751.732; 153640.36163339
65.15; 4798.2953; 158524.81922921
66.17; 4840.467; 163452.20578917
67.19; 4879.3167; 168419.13960169
68.20; 4914.4241; 173421.8113174
69.22; 4944.8128; 178455.41741263
70.24; 4970.1201; 183514.78518616
71.26; 4991.4317; 188595.84724281
72.27; 5011.3778; 193697.21363573
73.29; 5033.4255; 198821.02360893
74.31; 5060.6611; 203972.55826988
75.33; 5094.587; 209158.6280172
76.35; 5134.457; 214385.28370369
77.36; 5177.4524; 219655.70684777
78.38; 5219.6414; 224969.07654407
79.40; 5257.3264; 230320.80791865
80.42; 5288.2085; 235703.97596497
81.44; 5311.8663; 241111.22662056
82.45; 5329.3343; 246536.25901619
83.47; 5341.9623; 251974.14613468
84.49; 5350.0693; 257420.28579484
85.51; 5352.04; 262868.43152241
86.53; 5344.3675; 268308.76702969
87.54; 5322.7784; 273727.12571903
88.56; 5284.1149; 279106.12665197
89.58; 5228.2861; 284428.29628261
90.60; 5159.4805; 289680.42476516
91.62; 5086.0321; 294857.78598448
92.63; 5018.7856; 299966.69313815
93.65; 4968.3558; 305024.26499967
94.67; 4942.1209; 310055.13078188
95.69; 4941.9439; 315085.81644374
96.71; 4963.4269; 320138.37087863
97.72; 4997.0035; 325225.10476344
98.74; 5030.5625; 330346.00027103
99.76; 5052.7724; 335489.50452801
100.78; 5056.0402; 340636.33527905
101.80; 5038.1784; 345764.98351116
102.81; 5002.3142; 350857.12354467
103.83; 4955.19; 355901.29316101
104.85; 4904.5495; 360893.91290408
105.87; 4856.5813; 365837.7030782
106.89; 4814.308; 370738.46088362
107.90; 4777.4041; 375601.6520683
108.92; 4743.3598; 380430.18764008
109.94; 4709.3998; 385224.15344039
110.96; 4674.3009; 389982.39002168
111.98; 4639.331; 394705.02875404
112.99; 4607.9132; 399395.68550563
114.01; 4584.1464; 404062.1487704
115.03; 4570.7915; 408715.01731166
116.05; 4567.5639; 413364.6002833
117.07; 4570.4849; 418017.15664591
118.08; 4572.656; 422671.92318231
119.10; 4566.2923; 427320.21168605
120.12; 4545.3653; 431947.19742302
121.14; 4507.9576; 436536.10376295
122.15; 4457.4893; 441073.63547594
123.17; 4402.3361; 445555.02362489
124.19; 4353.8804; 449987.08600957
125.21; 4323.5388; 454388.26195628
126.23; 4319.6319; 458785.46080819
127.24; 4344.9992; 463208.48245357
128.26; 4396.0197; 467683.44082355
129.28; 4463.2715; 472226.85861118
130.30; 4533.5961; 476841.86380734
131.32; 4592.9747; 481517.3138197
132.33; 4629.4616; 486229.90591211
133.35; 4635.485; 490948.62960132
134.37; 4609.0588; 495640.45254951
135.39; 4553.7626; 500275.98633528
136.41; 4477.6412; 504834.03182227
137.42; 4391.3761; 509304.2631491
138.44; 4306.1667; 513687.75500082
139.46; 4231.7407; 517995.48439438
140.48; 4174.8264; 522245.27753611
141.50; 4138.3056; 526457.89409949
142.51; 4121.1418; 530653.03856655
143.53; 4119.0569; 534846.0607372
144.55; 4125.8072; 539045.95442006
145.57; 4134.7885; 543254.99070918
146.59; 4140.6158; 547469.95889972
147.60; 4140.2928; 551684.59829876
148.62; 4133.6591; 555892.48491392
149.64; 4122.9734; 560089.49388618
150.66; 4111.7385; 564275.06622693
151.68; 4103.1256; 568451.87098149
152.69; 4098.5173; 572623.98474787
153.71; 4096.6975; 576794.24603309
154.73; 4094.029; 580961.79092247
155.75; 4085.6337; 585120.78975076
156.77; 4067.2152; 589261.03935613
157.78; 4036.8884; 593370.41758086
158.80; 3996.3112; 597438.48995678
159.82; 3950.606; 601460.03636478
160.84; 3906.9611; 605437.15417155
161.86; 3872.2869; 609378.97510873
162.87; 3850.6872; 613298.80851288
163.89; 3841.6472; 617209.43959323
164.91; 3839.6546; 621118.04230321
165.93; 3835.5165; 625022.43259358
166.94; 3819.0532; 628910.06394644
167.96; 3782.3539; 632760.33701807
168.98; 3722.5481; 636549.73031622
170.00; 3643.1741; 640258.32433233
171.02; 3553.6774; 643875.8145518
172.03; 3467.1832; 647405.25739473
173.05; 3397.252; 650863.51334388
174.07; 3354.6346; 654278.3866388
175.09; 3344.9951; 657683.44730624
176.11; 3368.1941; 661112.12359822
177.12; 3419.166; 664592.6870438
178.14; 3489.8945; 668145.24900595
179.16; 3571.6874; 671781.07265722
180.18; 3656.9643; 675503.70454024
181.20; 3740.0786; 679310.94320249
182.21; 3817.1557; 683196.64303697
183.23; 3885.3444; 687151.75597029
184.25; 3942.084; 691164.62734342
185.27; 3984.9102; 695221.09400613
186.29; 4012.0011; 699305.13795588
187.30; 4023.2492; 703400.63206465
188.32; 4021.325; 707494.16740879
189.34; 4012.1028; 711578.31490232
190.36; 4004.0213; 715654.23584506
191.38; 4006.355; 719732.53236226
192.39; 4026.829; 723831.67055026
193.41; 4069.3342; 727974.07715441
194.43; 4132.5419; 732180.82647872
195.45; 4209.9643; 736466.38850207
196.47; 4291.5318; 740834.98267685
197.48; 4366.2457; 745279.63236754
198.50; 4425.1013; 749784.19453581
199.52; 4463.3934; 754327.73640409
200.54; 4481.7448; 758889.95924963
201.56; 4485.6425; 763456.1497568
202.57; 4483.7549; 768020.41876684
203.59; 4485.6622; 772586.6293653
204.61; 4499.7321; 777167.16242398
205.63; 4531.7065; 781780.24411676
206.65; 4584.2229; 786446.78522143
207.66; 4657.1196; 791187.53202993
208.68; 4748.1392; 796020.93280178
209.70; 4853.6087; 800961.69702954
210.72; 4968.8455; 806019.76731878
211.74; 5088.2942; 811199.43123472
212.75; 5205.6189; 816498.52662323
213.77; 5314.0294; 821907.97919934
214.79; 5406.9938; 827412.06551886
215.81; 5479.2392; 832989.69460038
216.82; 5527.7032; 838616.65791924
217.84; 5552.0034; 844268.35783958
218.86; 5554.117; 849922.20927394
219.88; 5537.2661; 855558.90717805
220.90; 5504.3742; 861162.12263
221.91; 5456.7106; 866716.81857074
222.93; 5393.3439; 872207.00993941
223.95; 5311.7512; 877614.14343077
224.97; 5209.4557; 882917.14458237
225.99; 5086.0966; 888094.57144806
227.00; 4945.0649; 893128.43409444
228.02; 4793.9188; 898008.43657308
229.04; 4643.2076; 902735.02154389
230.06; 4503.9473; 907319.84549112
231.08; 4384.5584; 911783.136726
232.09; 4288.3574; 916148.49950089
233.11; 4212.5574; 920436.7011138
234.13; 4149.2166; 924660.42459385
235.15; 4087.8633; 928821.69307269
236.17; 4018.9006; 932912.76048187
237.18; 3936.6073; 936920.05683549
238.20; 3840.7104; 940829.73430183
239.22; 3736.0545; 944632.87658958
240.24; 3630.6084; 948328.67926296
241.26; 3532.6484; 951924.76287725
242.27; 3448.2064; 955434.88816547
243.29; 3379.6835; 958875.26011328
244.31; 3326.0039; 962260.98856942
245.33; 3284.0439; 965604.00356604
246.35; 3250.5864; 968912.96029277
247.36; 3223.9092; 972194.76076562
248.38; 3204.3526; 975456.65346085
249.40; 3193.7071; 978707.70944781
250.42; 3193.7868; 981958.84655649
251.44; 3204.8901; 985221.28637217
252.45; 3224.8613; 988504.05597926
253.47; 3249.1765; 991811.57748796
254.49; 3272.028; 995142.36077637
255.51; 3287.9689; 998489.37123609
256.53; 3293.4858; 1001841.997657
257.54; 3287.9346; 1005188.9731548
258.56; 3273.5655; 1008521.3215892
259.58; 3254.7187; 1011834.4847723
260.60; 3236.5429; 1015129.1457726
261.61; 3223.6841; 1018410.7171197
262.63; 3219.2996; 1021687.8251803
263.65; 3224.5629; 1024970.2910254
264.67; 3238.6467; 1028267.0936203
265.69; 3259.0769; 1031584.6932732
266.70; 3282.3575; 1034925.9915388
267.72; 3304.8151; 1038290.1507042
268.74; 3323.6209; 1041673.4533106
269.76; 3337.8728; 1045071.2637675
270.78; 3349.4865; 1048480.8965216
271.79; 3363.5288; 1051904.8236988
272.81; 3387.6479; 1055353.3030526
273.83; 3430.4659; 1058845.3693129
274.85; 3499.1655; 1062407.3687469
275.87; 3596.896; 1066068.8536262
276.88; 3720.8639; 1069856.5325246
277.90; 3861.9081; 1073787.7883103
278.92; 4005.9667; 1077865.6895451
279.94; 4137.2275; 1082077.2086458
280.96; 4242.1415; 1086395.5256724
281.97; 4313.1191; 1090786.0948004
282.99; 4350.7789; 1095214.9999619
284.01; 4364.0795; 1099657.444606
285.03; 4368.366; 1104104.2527356
286.05; 4382.0323; 1108564.9725213
287.06; 4422.8818; 1113067.2753597
288.08; 4505.2268; 1117653.4018277
289.10; 4638.3476; 1122375.0394881
290.12; 4826.3454; 1127288.0508531
291.14; 5068.9239; 1132447.9966183
292.15; 5362.4308; 1137906.7198036
293.17; 5700.6378; 1143709.7231162
294.19; 6075.1043; 1149893.9171397
295.21; 6475.3526; 1156485.5466936
296.23; 6889.2503; 1163498.5062483
297.24; 7303.8663; 1170933.5269297
298.26; 7706.7134; 1178778.6285617
299.28; 8086.9195; 1187010.763612
300.30; 8435.7156; 1195597.9581107
301.32; 8745.8325; 1204500.8381506
302.33; 9009.9056; 1213672.5332953
303.35; 9218.587; 1223056.6570888
304.37; 9359.4336; 1232584.1566353
305.39; 9417.5627; 1242170.8290501
306.41; 9378.4663; 1251717.703026
307.42; 9232.4636; 1261115.9525555
308.44; 8979.4009; 1270256.5952258
309.46; 8631.7861; 1279043.3809703
310.48; 8214.8099; 1287405.7030021
311.49; 7762.6458; 1295307.7414594
312.51; 7311.712; 1302750.7487139
313.53; 6892.7562; 1309767.2770719
314.55; 6524.1992; 1316408.630356
315.57; 6208.8973; 1322729.0198387
316.58; 5935.4128; 1328771.0139485
317.60; 5683.3895; 1334556.4591963
318.62; 5431.2497; 1340085.2370192
319.64; 5163.6796; 1345341.6399883
320.66; 4876.5024; 1350305.7090155
321.67; 4577.5077; 1354965.4143188
322.69; 4283.2286; 1359325.5561981
323.71; 4013.0241; 1363410.641543
324.73; 3782.6379; 1367261.2036742
325.75; 3599.4206; 1370925.2585672
326.76; 3460.6591; 1374448.0602246
327.78; 3355.2754; 1377863.585812
328.80; 3267.9925; 1381190.2611601
329.82; 3184.3192; 1384431.7607462
330.84; 3094.6097; 1387581.9398861
331.85; 2995.9673; 1390631.7052825
332.87; 2891.6456; 1393575.2757253
333.89; 2788.494; 1396413.8422832
334.91; 2693.5892; 1399155.7998431
335.93; 2611.3184; 1401814.0093234
336.94; 2541.849; 1404401.501913
337.96; 2481.3144; 1406927.3729241
338.98; 2423.4169; 1409394.3067828
340.00; 2361.71; 1411798.4256928
341.02; 2291.706; 1414131.2835353
342.03; 2212.1383; 1416383.1448971
343.05; 2125.0875; 1418546.3922691
344.07; 2035.0891; 1420618.0251537
345.09; 1947.6428; 1422600.6414886
346.11; 1867.655; 1424501.8337215
347.12; 1798.2736; 1426332.3986741
348.14; 1740.3743; 1428104.0246244
349.16; 1692.7233; 1429827.1438974
350.18; 1652.6487; 1431509.4689398
351.20; 1616.9517; 1433155.4560051
352.21; 1582.784; 1434766.6618302
353.23; 1548.2852; 1436342.7493327
354.25; 1512.8781; 1437882.7939802
355.27; 1477.2216; 1439386.5417873
356.28; 1442.8952; 1440855.3468786
357.30; 1411.9342; 1442292.6349788
358.32; 1386.3352; 1443703.8643898
359.34; 1367.6387; 1445096.0615408
360.36; 1356.6556; 1446477.0783998
361.37; 1353.3681; 1447854.7487696
362.39; 1356.9973; 1449236.1134979
363.41; 1366.2044; 1450626.8506363
364.43; 1379.3776; 1452030.9975376
365.45; 1394.9515; 1453450.9979552
366.46; 1411.7064; 1454888.0541896
367.48; 1428.9993; 1456342.7138592
368.50; 1446.8786; 1457815.5738849
369.52; 1466.0464; 1459307.9458442
370.54; 1487.6498; 1460822.3091178
371.55; 1512.9218; 1462362.3982472
372.57; 1542.7413; 1463932.8423104
373.59; 1577.2314; 1465538.3958485
374.61; 1615.5427; 1467182.9485577
375.63; 1655.9437; 1468868.6277366
376.64; 1696.2699; 1470595.3573222
377.66; 1734.6618; 1472361.1682084
378.68; 1770.403; 1474163.3620819
379.70; 1804.5942; 1476000.3610918
380.72; 1840.4073; 1477873.8163011
381.73; 1882.7746; 1479790.3996355
382.75; 1937.5468; 1481762.7386417
383.77; 2010.3395; 1483809.1774702
384.79; 2105.4064; 1485952.3902865
385.81; 2224.8655; 1488217.2073571
386.82; 2368.4676; 1490628.2051803
387.84; 2533.8735; 1493207.5790848
388.86; 2717.2028; 1495973.5742377
389.88; 2913.5207; 1498939.4125859
390.90; 3117.0041; 1502112.3882445
391.91; 3320.7436; 1505492.7619705
392.93; 3516.4149; 1509072.3206358
393.95; 3694.2402; 1512832.897792
394.97; 3843.6594; 1516745.5772283
395.99; 3954.8902; 1520771.4847991
397.00; 4021.1547; 1524864.8467291
398.02; 4040.9406; 1528978.3499039
399.04; 4019.4442; 1533069.9706333
400.06; 3968.4429; 1537109.6742566
401.07; 3904.2945; 1541084.0775747
402.09; 3844.4145; 1544997.5256886
403.11; 3803.2156; 1548869.0350408
404.13; 3788.8275; 1552725.8979635
405.15; 3801.7878; 1556595.953843
406.16; 3836.2835; 1560501.1249385
407.18; 3883.6334; 1564454.4961941
408.20; 3936.8296; 1568462.0188866
409.22; 3994.4659; 1572528.2128202
410.24; 4062.4716; 1576663.6335797
411.25; 4152.7705; 1580890.9747682
412.27; 4279.0686; 1585246.8819287
413.29; 4451.0613; 1589777.8703113
414.31; 4669.0453; 1594530.7569782
415.33; 4920.9305; 1599540.0518559
416.34; 5182.9533; 1604816.0746662
417.36; 5424.1953; 1610337.6714213
418.38; 5613.7282; 1616052.2045283
419.40; 5728.2828; 1621883.3492181
420.42; 5758.098; 1627744.8445454
421.43; 5709.1471; 1633556.5098993
422.45; 5601.0676; 1639258.1550387
423.47; 5461.4731; 1644817.6989766
424.49; 5318.4256; 1650231.6267505
425.51; 5193.3596; 1655518.2427466
426.52; 5096.505; 1660706.2649517
427.54; 5025.9825; 1665822.4982131
428.56; 4970.5483; 1670882.3019028
429.58; 4914.8612; 1675885.418559
430.60; 4845.4762; 1680817.904213
431.61; 4755.729; 1685659.031118
432.63; 4648.2115; 1690390.7098049
433.65; 4534.4187; 1695006.5523772
434.67; 4432.0518; 1699518.1898612
435.69; 4361.0719; 1703957.5728171
436.70; 4339.7613; 1708375.2625512
437.72; 4381.7626; 1712835.7078428
438.74; 4494.507; 1717410.9220571
439.76; 4678.8698; 1722173.8096062
440.78; 4929.5281; 1727191.8564961
441.79; 5235.4673; 1732521.3362411
442.81; 5580.3529; 1738201.894694
443.83; 5942.8928; 1744251.5031087
444.85; 6297.6332; 1750662.2219048
445.87; 6616.6928; 1757397.7297005
446.88; 6872.6733; 1764393.8145917
447.90; 7042.485; 1771562.7604338
448.92; 7111.3056; 1778801.7626967
449.94; 7075.5739; 1786004.3915931
450.95; 6943.9894; 1793073.0731481
451.97; 6735.9662; 1799929.9960331
452.99; 6477.7298; 1806524.0454102
454.01; 6196.9998; 1812832.3238266
455.03; 5917.6809; 1818856.267604
456.04; 5656.0031; 1824613.8346857
457.06; 5419.0871; 1830130.2315355
458.08; 5206.1115; 1835429.828374
459.10; 5011.4205; 1840531.2382138
460.12; 4828.3275; 1845446.2672826
461.13; 4652.245; 1850182.0519575
462.15; 4482.1425; 1854744.6795921
463.17; 4320.0357; 1859142.2895121
464.19; 4168.9762; 1863386.1273595
465.21; 4030.5465; 1867489.0497684
466.22; 3902.9891; 1871462.1242151
467.24; 3780.7813; 1875310.7964654
468.26; 3655.8652; 1879032.3095195
469.28; 3520.0897; 1882615.6089536
470.30; 3367.9793; 1886044.0665021
471.31; 3198.8488; 1889300.3565282
472.33; 3017.5516; 1892372.0938219
473.35; 2833.6425; 1895256.6196601
474.37; 2659.2649; 1897963.6365364
475.39; 2506.4368; 1900515.0810665
476.40; 2384.5247; 1902942.4242913
477.42; 2298.5403; 1905282.2391457
478.44; 2248.5944; 1907571.2112158
479.46; 2230.4927; 1909841.7565482
480.48; 2237.194; 1912119.1235064
481.49; 2260.7021; 1914420.4206589
482.51; 2293.937; 1916755.5495195
483.53; 2332.1837; 1919129.6118413
484.55; 2373.8144; 1921546.052485
485.57; 2420.1135; 1924009.6236285
486.58; 2474.1999; 1926528.2523635
487.60; 2539.251; 1929113.100312
488.62; 2616.4473; 1931776.5307175
489.64; 2703.2178; 1934528.2897455
490.66; 2792.3936; 1937370.8258991
491.67; 2872.7063; 1940295.1169058
492.69; 2930.7127; 1943278.4559723
493.71; 2953.7715; 1946285.2679227
494.73; 2933.2929; 1949271.2335037
495.74; 2867.2919; 1952190.0129727
496.76; 2761.3977; 1955000.9966578
497.78; 2627.8948; 1957676.0801579
498.80; 2482.9785; 1960203.6451462
499.82; 2342.977; 1962588.6946012
500.83; 2220.635; 1964849.2051871
501.85; 2122.5332; 1967009.8523434
502.87; 2048.3389; 1969094.9729971
503.89; 1991.9888; 1971122.7316857
504.91; 1944.2952; 1973101.940316
505.92; 1896.0671; 1975032.0548246
506.94; 1840.7591; 1976905.8681178
507.96; 1775.9163; 1978713.6742855
508.98; 1703.1551; 1980447.4126327
510.00; 1626.9177; 1982103.5446918
511.01; 1552.6029; 1983684.0274218
512.03; 1484.7784; 1985195.4678078
513.05; 1426.0439; 1986647.1189884
514.07; 1376.7913; 1988048.6330748
515.09; 1335.7643; 1989408.3835068
516.10; 1301.0557; 1990732.8020642
517.12; 1271.0862; 1992026.7130054
518.14; 1245.1947; 1993294.2674393
519.16; 1223.6674; 1994539.9080633
520.18; 1207.2747; 1995768.8615745
521.19; 1196.5608; 1996986.9088699
522.21; 1191.2099; 1998199.5091841
523.23; 1189.7549; 1999410.6283597
524.25; 1189.7562; 2000621.7488177
525.27; 1188.3951; 2001831.4837871
526.28; 1183.2792; 2003036.0109046
527.30; 1173.1833; 2004230.2608863
528.32; 1158.4825; 2005409.5460922
529.34; 1141.1389; 2006571.176208
530.36; 1124.2598; 2007715.624148
531.37; 1111.3772; 2008846.9581838
532.39; 1105.6697; 2009972.4822287
533.41; 1109.3382; 2011101.7406852
534.43; 1123.2655; 2012245.1764912
535.45; 1146.9785; 2013412.7510623
536.46; 1178.8425; 2014612.7618879
537.48; 1216.3775; 2015850.9816945
538.50; 1256.6052; 2017130.1515701
539.52; 1296.3925; 2018449.8232239
540.54; 1332.7997; 2019806.5557677
541.55; 1363.451; 2021194.4900655
542.57; 1386.9081; 2022606.3026388
543.59; 1402.9651; 2024034.4605438
544.61; 1412.752; 2025472.5810782
545.62; 1418.5505; 2026916.6042601
546.64; 1423.3136; 2028365.4760869
547.66; 1429.9944; 2029821.14867
548.68; 1440.8825; 2031287.9048548
549.70; 1457.1627; 2032771.2335886
550.71; 1478.8356; 2034276.6244179
551.73; 1505.0019; 2035808.6514148
552.75; 1534.376; 2037370.5799415
553.77; 1565.8255; 2038964.5227644
554.79; 1598.7656; 2040591.9971185
555.80; 1633.3456; 2042254.6724326
556.82; 1670.4952; 2043955.1645071
557.84; 1711.959; 2045697.8649004
558.86; 1760.414; 2047489.8903748
559.88; 1819.6453; 2049342.2107636
560.89; 1894.6199; 2051270.8520961
561.91; 1991.2446; 2053297.8531267
562.93; 2115.6673; 2055451.5111879
563.95; 2273.1749; 2057765.5051475
564.97; 2466.9554; 2060276.7593403
565.98; 2697.1332; 2063022.3245061
567.00; 2960.4406; 2066035.925268
568.02; 3250.6826; 2069344.9798986
569.04; 3559.8442; 2072968.7476885
570.06; 3879.4452; 2076917.8555456
571.07; 4201.6722; 2081194.9764867
572.09; 4519.9551; 2085796.0957105
573.11; 4828.9428; 2090711.7511486
574.13; 5124.1088; 2095927.8727621
575.15; 5401.3543; 2101426.2183611
576.16; 5656.8981; 2107184.696522
577.18; 5887.4994; 2113177.9168901
578.20; 6090.813; 2119378.1016583
579.22; 6265.5664; 2125756.1779048
580.24; 6411.3701; 2132282.6760306
581.25; 6528.2503; 2138928.1531434
582.27; 6616.2753; 2145663.2359166
583.29; 6675.7221; 2152458.8329274
584.31; 6708.0123; 2159287.2999899
