#Wavenumber (cm^-1);  Spectrum at 400.00 K (cm*km*mol^-1);  Integral (km*mol^-1)
0.00; 0.0011562768; 0.001177039842485
1.02; 0.0012053985; 0.0024040835317333
2.04; 0.0013500275; 0.0037783532799252
3.05; 0.0015823977; 0.0053891658293308
4.07; 0.0018908822; 0.0073140023281421
5.09; 0.002261484; 0.0096160954704535
6.11; 0.0026791932; 0.012343398577751
7.13; 0.0031289271; 0.015528511348314
8.14; 0.0035960749; 0.019189160380986
9.16; 0.004066958; 0.023329148155419
10.18; 0.0045296171; 0.027940102909922
11.20; 0.0049751636; 0.033004604816474
12.22; 0.0053995348; 0.03850109825921
13.23; 0.0058050373; 0.044410375719387
14.25; 0.0062008132; 0.050722536020423
15.27; 0.0066015026; 0.057442580814363
16.29; 0.0070239505; 0.064592659346444
17.31; 0.0074826402; 0.072209664189435
18.32; 0.0079852728; 0.080338327307263
19.34; 0.0085301843; 0.089021686822297
20.36; 0.0091068583; 0.098292075636475
21.38; 0.0096997193; 0.10816597129964
22.40; 0.010294054; 0.11864487383188
23.41; 0.010881874; 0.12972215220633
24.43; 0.011465319; 0.14139335175758
25.45; 0.012055988; 0.15366582765787
26.47; 0.01267022; 0.1665635646955
27.48; 0.013322031; 0.18012481765494
28.50; 0.014016614; 0.19439312599949
29.52; 0.014747169; 0.20940510805225
30.54; 0.015496561; 0.22517993880755
31.56; 0.016243185; 0.24171479982909
32.57; 0.016968522; 0.25898802272577
33.59; 0.017663021; 0.27696821630298
34.61; 0.018327615; 0.29562493774146
35.63; 0.01897019; 0.31493577283425
36.65; 0.019598765; 0.3348864700246
37.66; 0.020214831; 0.35546429615427
38.68; 0.020810427; 0.37664841245508
39.70; 0.021370833; 0.39840299801298
40.72; 0.021882037; 0.42067796737243
41.74; 0.022339522; 0.44341863706989
42.75; 0.022753884; 0.46658110880068
43.77; 0.023149849; 0.4901466562334
44.79; 0.023558206; 0.51412789292084
45.81; 0.024003621; 0.53856254285195
46.83; 0.024493758; 0.56349613110409
47.84; 0.025015129; 0.58896045322001
48.86; 0.025538552; 0.6149575972504
49.88; 0.026032834; 0.64145789877343
50.90; 0.026481276; 0.66841469473839
51.92; 0.026893616; 0.69579123497066
52.93; 0.027307259; 0.72358884655027
53.95; 0.027775756; 0.75186336804309
54.97; 0.028347866; 0.78072027264728
55.99; 0.029044922; 0.81028675023635
57.01; 0.029845612; 0.84066829527432
58.02; 0.030684971; 0.87190427207395
59.04; 0.031469212; 0.90393857206345
60.06; 0.032102002; 0.93661702511467
61.08; 0.032513471; 0.96971433513417
62.10; 0.032682193; 1.0029833968072
63.11; 0.032643079; 1.0362126422067
64.13; 0.032479194; 1.0692750596677
65.15; 0.032300963; 1.1021560465179
66.17; 0.032219881; 1.1349544950494
67.19; 0.032324541; 1.1678594824746
68.20; 0.032664808; 1.2011108471227
69.22; 0.033246462; 1.2349543103343
70.24; 0.034035394; 1.2696008723569
71.26; 0.034968627; 1.3051974254371
72.27; 0.03596925; 1.3418125697942
73.29; 0.036963129; 1.3794394405262
74.31; 0.037895855; 1.4180157851586
75.33; 0.03874806; 1.4574596382386
76.35; 0.039546136; 1.4977158985864
77.36; 0.040364358; 1.538805073477
78.38; 0.041314868; 1.5808618261807
79.40; 0.042524487; 1.6241499187578
80.42; 0.044101638; 1.6690434828304
81.44; 0.046101223; 1.7159725388291
82.45; 0.048498055; 1.7653414661958
83.47; 0.051178681; 1.8174391549792
84.49; 0.053956873; 1.8723649237969
85.51; 0.056610878; 1.929992354735
86.53; 0.058933304; 1.9899839148835
87.54; 0.060779995; 2.051855326724
88.56; 0.062104127; 2.1150746481589
89.58; 0.062966204; 2.179171526799
90.60; 0.0635179; 2.2438300080039
91.62; 0.063965187; 2.3089438085289
92.63; 0.064521364; 2.3746237729481
93.65; 0.065362097; 2.4411595668355
94.67; 0.066592586; 2.508947946171
95.69; 0.068232778; 2.5784059695859
96.71; 0.070221905; 2.6498888384726
97.72; 0.072439863; 2.7236294925937
98.74; 0.074740288; 2.7997118806085
99.76; 0.076988537; 2.8780828893585
100.78; 0.079096589; 2.9585998033815
101.80; 0.081046438; 3.0411015802795
102.81; 0.082894573; 3.1254846783519
103.83; 0.084753543; 3.2117601275803
104.85; 0.086752744; 3.3000706778818
105.87; 0.088988001; 3.39065662263
106.89; 0.091475748; 3.4837749871337
107.90; 0.094129382; 3.5795946359891
108.92; 0.096770402; 3.6781027297515
109.94; 0.099175822; 3.7790594366429
110.96; 0.10114915; 3.882024909464
111.98; 0.10259081; 3.9864579286873
112.99; 0.10354036; 4.091857547252
114.01; 0.10417062; 4.1978987447438
115.03; 0.10473076; 4.3045101382457
116.05; 0.10545596; 4.4118597555689
117.07; 0.10647705; 4.5202487999315
118.08; 0.10776688; 4.629950830228
119.10; 0.10914873; 4.7410595266679
120.12; 0.11036887; 4.8534102733787
121.14; 0.11120886; 4.9666160967283
122.15; 0.11159497; 5.0802149653607
123.17; 0.11165951; 5.1938795238835
124.19; 0.11172488; 5.3076106351788
125.21; 0.11221021; 5.4218357871491
126.23; 0.11349059; 5.5373643063698
127.24; 0.11575963; 5.6552026103404
128.26; 0.11894643; 5.7762849422706
129.28; 0.12271916; 5.9012077537005
130.30; 0.12657548; 6.0300561273483
131.32; 0.12998788; 6.1623781844061
132.33; 0.13255266; 6.2973110687634
133.35; 0.13409138; 6.4338103109295
134.37; 0.13467424; 6.570902870876
135.39; 0.13456467; 6.707883901779
136.41; 0.13411409; 6.8444062560031
137.42; 0.13365014; 6.9804563335972
138.44; 0.13339923; 7.1162509886088
139.46; 0.13346406; 7.2521116424195
140.48; 0.13385165; 7.3883668465696
141.50; 0.13452597; 7.5253084739652
142.51; 0.13545276; 7.6631935373391
143.53; 0.13661281; 7.8022594812584
144.55; 0.13797937; 7.9427165305241
145.57; 0.13947611; 8.0846971883501
146.59; 0.1409431; 8.2281711866587
147.60; 0.14213613; 8.3728596298798
148.62; 0.14276849; 8.5181917898587
149.64; 0.14258444; 8.6633366013686
150.66; 0.1414366; 8.8073129559946
151.68; 0.13933577; 8.949150757562
152.69; 0.13645179; 9.0880527942761
153.71; 0.13306349; 9.2235056805474
154.73; 0.12947668; 9.3553073526088
155.75; 0.12594167; 9.4835105358392
156.77; 0.12260045; 9.6083125068139
157.78; 0.11948041; 9.7299384061375
158.80; 0.11653091; 9.8485618470295
159.82; 0.11368204; 9.9642852542353
160.84; 0.11089692; 10.07717353269
161.86; 0.10819501; 10.187311382614
162.87; 0.10563851; 10.29484682507
163.89; 0.10329222; 10.399993852688
164.91; 0.10117919; 10.502989900152
165.93; 0.099255765; 10.604027985544
166.94; 0.09742029; 10.703197636863
167.96; 0.095553193; 10.800466664032
168.98; 0.093571681; 10.895718597204
170.00; 0.09147492; 10.988836118016
171.02; 0.089359311; 11.079800040371
172.03; 0.087396026; 11.168765423369
173.05; 0.085778731; 11.256084469909
174.07; 0.08466149; 11.342266213358
175.09; 0.084110201; 11.427886768046
176.11; 0.084084567; 11.513481228648
177.12; 0.084454743; 11.599452512634
178.14; 0.085043181; 11.686022801089
179.16; 0.085673586; 11.773234814377
180.18; 0.086208419; 11.860991264784
181.20; 0.086563529; 11.949109201778
182.21; 0.08669947; 12.037365521485
183.23; 0.086598829; 12.125519392676
184.25; 0.086243307; 12.21331135749
185.27; 0.08560212; 12.300450621931
186.29; 0.084636128; 12.386606547827
187.30; 0.083313822; 12.471416423744
188.32; 0.081629822; 12.554512060351
189.34; 0.079616074; 12.63555778794
190.36; 0.077340336; 12.714286912574
191.38; 0.074893182; 12.790524940192
192.39; 0.072370283; 12.864194765049
193.41; 0.069858512; 12.935307715654
194.43; 0.067431777; 13.003950354878
195.45; 0.065156909; 13.070277276702
196.47; 0.063104347; 13.134514779359
197.48; 0.061355483; 13.196972013176
198.50; 0.059999792; 13.258049212195
199.52; 0.059119694; 13.318230509123
200.54; 0.0587671; 13.378052880684
201.56; 0.058940124; 13.438051383889
202.57; 0.059569289; 13.498690349759
203.59; 0.06051947; 13.560296558945
204.61; 0.061608194; 13.623011042004
205.63; 0.062635193; 13.686770965547
206.65; 0.063414746; 13.751324440941
207.66; 0.063802472; 13.81627260378
208.68; 0.06371143; 13.881128090106
209.70; 0.063116943; 13.945378414855
210.72; 0.062053171; 14.008545864901
211.74; 0.060605774; 14.070239927235
212.75; 0.058903708; 14.130201360041
213.77; 0.05711044; 14.188337323507
214.79; 0.055412563; 14.244744921386
215.81; 0.054003378; 14.299718029521
216.82; 0.053060971; 14.353731808825
217.84; 0.052723726; 14.407402286285
218.86; 0.053069201; 14.461424442649
219.88; 0.054103151; 14.516499116033
220.90; 0.055763134; 14.573263580322
221.91; 0.057936435; 14.632240370753
222.93; 0.060486711; 14.69381323264
223.95; 0.063280266; 14.758229812921
224.97; 0.066202928; 14.825621536774
225.99; 0.069162443; 14.896025919689
227.00; 0.072077578; 14.969397783685
228.02; 0.074861174; 15.04560322804
229.04; 0.077407546; 15.124400769475
230.06; 0.079593235; 15.205423247694
231.08; 0.081294598; 15.288177640642
232.09; 0.082418164; 15.372075775322
233.11; 0.082933165; 15.456498158907
234.13; 0.082893109; 15.540879766773
235.15; 0.082435873; 15.624795927806
236.17; 0.081758909; 15.708022969197
237.18; 0.081075067; 15.790553888958
238.20; 0.080561868; 15.872562394366
239.22; 0.080319949; 15.954324636361
240.24; 0.080353616; 16.03612114975
241.26; 0.080579059; 16.118147154466
242.27; 0.080856484; 16.200455566578
243.29; 0.081034687; 16.282945381653
244.31; 0.080993154; 16.365392917108
245.33; 0.080668739; 16.447510212661
246.35; 0.080060328; 16.529008171899
247.36; 0.079213064; 16.609643652986
248.38; 0.078190675; 16.689238386229
249.40; 0.077047605; 16.767669522978
250.42; 0.07581125; 16.844842103954
251.44; 0.074479472; 16.920658992394
252.45; 0.073031934; 16.995002350029
253.47; 0.071448404; 17.06773374208
254.49; 0.06972492; 17.138710702117
255.51; 0.067880388; 17.207810007803
256.53; 0.065950797; 17.274945073325
257.54; 0.06397395; 17.340067794168
258.56; 0.061971973; 17.403152588083
259.58; 0.059940275; 17.464169201095
260.60; 0.057849471; 17.523057466429
261.61; 0.055661824; 17.579718801761
262.63; 0.053357891; 17.634034832556
263.65; 0.050964368; 17.685914360258
264.67; 0.04857239; 17.735358957253
265.69; 0.046337497; 17.782528529928
266.70; 0.044457662; 17.827784511668
267.72; 0.043132572; 17.871691608305
268.74; 0.042513719; 17.914968739887
269.76; 0.042658714; 17.95839346952
270.78; 0.043503274; 18.002677925074
271.79; 0.044860477; 18.048343954523
272.81; 0.046449916; 18.095627964986
273.83; 0.047951424; 18.144440444935
274.85; 0.049071096; 18.194392702761
275.87; 0.049603591; 18.244887018029
276.88; 0.049475061; 18.295250495321
277.90; 0.048755719; 18.344881713706
278.92; 0.047638695; 18.393375849477
279.94; 0.046390444; 18.440599319302
280.96; 0.045285283; 18.486697783161
281.97; 0.044540598; 18.532038189858
282.99; 0.044268857; 18.577101975546
284.01; 0.044457897; 18.622358196625
285.03; 0.044983312; 18.668149267606
286.05; 0.045648233; 18.714617198506
287.06; 0.046238771; 18.761686272497
288.08; 0.046579701; 18.809102398228
289.10; 0.046575553; 18.856514301542
290.12; 0.046227008; 18.903571400538
291.14; 0.04561973; 18.950010317522
292.15; 0.044890623; 18.995707035018
293.17; 0.044182527; 19.040682940741
294.19; 0.043601072; 19.085066950408
295.21; 0.043185972; 19.129028406264
296.23; 0.042904128; 19.172702957125
297.24; 0.0426651; 19.216134188029
298.26; 0.042352885; 19.259247597607
299.28; 0.041863515; 19.301862849608
300.30; 0.041136994; 19.34373853436
301.32; 0.040174617; 19.384634560992
302.33; 0.039037776; 19.424373332031
303.35; 0.03783017; 19.462882812908
304.37; 0.036670068; 19.500211359543
305.39; 0.035661424; 19.536513149827
306.41; 0.034871921; 19.572011260223
307.42; 0.034322815; 19.606950404511
308.44; 0.033991247; 19.641552027124
309.46; 0.03382195; 19.675981312884
310.48; 0.033743209; 19.710330443918
311.49; 0.033681984; 19.744617249933
312.51; 0.033574847; 19.778794995231
313.53; 0.033373868; 19.812768152634
314.55; 0.033048621; 19.846410222205
315.57; 0.032586393; 19.879581764531
316.58; 0.031992241; 19.912148485123
317.60; 0.031289215; 19.943999555387
318.62; 0.030517783; 19.975065341652
319.64; 0.029732815; 20.005332064194
320.66; 0.028996958; 20.034849715804
321.67; 0.02837058; 20.063729741884
322.69; 0.027900067; 20.092130806365
323.71; 0.027607417; 20.120233965287
324.73; 0.02748422; 20.14821171485
325.75; 0.027492142; 20.176197528913
326.76; 0.027570251; 20.204262854395
327.78; 0.027647614; 20.232406932312
328.80; 0.027658167; 20.260561753105
329.82; 0.027554316; 20.288610858156
330.84; 0.027316188; 20.316417558619
331.85; 0.02695463; 20.343856209171
332.87; 0.026507587; 20.370839789021
333.89; 0.026030916; 20.397338138041
334.91; 0.025585833; 20.423383411609
335.93; 0.025225753; 20.44906214009
336.94; 0.024985346; 20.47449614373
337.96; 0.0248741; 20.499816903874
338.98; 0.024875735; 20.525139328457
340.00; 0.02495341; 20.550540823116
341.02; 0.025059305; 20.576050113911
342.03; 0.025146016; 20.601647672845
343.05; 0.025176802; 20.627276570461
344.07; 0.025132175; 20.652860040298
345.09; 0.025011645; 20.678320815244
346.11; 0.024831066; 20.703597769158
347.12; 0.024617469; 20.728657290201
348.14; 0.024403734; 20.753499238544
349.16; 0.024224917; 20.778159158198
350.18; 0.024116533; 20.802708748488
351.20; 0.024113563; 20.827255315324
352.21; 0.02424803; 20.85193876388
353.23; 0.024543532; 20.876923020726
354.25; 0.025006856; 20.902378920729
355.27; 0.025619192; 20.928458152776
356.28; 0.026331236; 20.955262214556
357.30; 0.027066488; 20.982814731512
358.32; 0.027734949; 21.011047712589
359.34; 0.028255524; 21.039810616737
360.36; 0.028581338; 21.068905185016
361.37; 0.028719478; 21.098140374023
362.39; 0.028736984; 21.127393383868
363.41; 0.028748461; 21.15665807656
364.43; 0.028886635; 21.186063424293
365.45; 0.029263428; 21.215852330844
366.46; 0.029933291; 21.246323129183
367.48; 0.030870889; 21.277748361691
368.50; 0.031971293; 21.310293758833
369.52; 0.033073855; 21.343961516082
370.54; 0.034003225; 21.378575331781
371.55; 0.034615364; 21.413812278163
372.57; 0.034834745; 21.449272545674
373.59; 0.034671945; 21.484567089629
374.61; 0.034217223; 21.519398746278
375.63; 0.033613304; 21.553615639569
376.64; 0.033016646; 21.587225160775
377.66; 0.032559146; 21.620368966337
378.68; 0.032320828; 21.653270174958
379.70; 0.032319468; 21.686169998567
380.72; 0.032517188; 21.719271093039
381.73; 0.032839054; 21.752699832945
382.75; 0.033196059; 21.786491988857
383.77; 0.033505286; 21.820598924195
384.79; 0.033702685; 21.854906802898
385.81; 0.033747573; 21.889260375776
386.82; 0.033621015; 21.923485118719
387.84; 0.033321714; 21.957405185726
388.86; 0.032862618; 21.990857912437
389.88; 0.032269723; 22.023707098046
390.90; 0.03158243; 22.055856648825
391.91; 0.030853362; 22.08726403963
392.93; 0.03014535; 22.117950704741
393.95; 0.029524317; 22.148005185212
394.97; 0.029048593; 22.177575398993
395.99; 0.028756954; 22.206848737592
397.00; 0.028658718; 22.236022075743
398.02; 0.028729092; 22.265267051473
399.04; 0.028911793; 22.294698008848
400.06; 0.029129008; 22.324350082149
401.07; 0.02929678; 22.354172939498
402.09; 0.029342361; 22.384042197087
403.11; 0.029219488; 22.413786375218
404.13; 0.028917897; 22.443223546051
405.15; 0.028464758; 22.472199441872
406.16; 0.027917589; 22.500618343076
407.18; 0.027350233; 22.528459699974
408.20; 0.026835278; 22.555776854789
409.22; 0.026427295; 22.582678701048
410.24; 0.026151332; 22.609299628387
411.25; 0.026000003; 22.635766509656
412.27; 0.025940452; 22.66217277059
413.29; 0.025929732; 22.688568118402
414.31; 0.025934515; 22.714968335912
415.33; 0.02594922; 22.74138352208
416.34; 0.026006349; 22.767856863454
417.36; 0.026174555; 22.794501431205
418.38; 0.02654334; 22.821521405966
419.40; 0.027197688; 22.849207478377
420.42; 0.028189852; 22.877903531341
421.43; 0.029517586; 22.907951159855
422.45; 0.03111719; 22.93962711639
423.47; 0.032875731; 22.973093191852
424.49; 0.034660549; 23.008376134562
425.51; 0.036357723; 23.045386727803
426.52; 0.037906826; 23.08397424076
427.54; 0.039318968; 23.123999253836
428.56; 0.040669608; 23.165399159989
429.58; 0.042065739; 23.208220266885
430.60; 0.043596463; 23.252599584557
431.61; 0.045283176; 23.298695903462
432.63; 0.047047749; 23.346588481909
433.65; 0.048712793; 23.39617600329
434.67; 0.050038233; 23.447112764778
435.69; 0.050786026; 23.498810747304
436.70; 0.0507942; 23.550517050841
437.72; 0.050036423; 23.601451970308
438.74; 0.048646281; 23.650971785474
439.76; 0.046895775; 23.698709660758
440.78; 0.045132051; 23.744652140888
441.79; 0.043690191; 23.78912687019
442.81; 0.042808167; 23.832703737012
443.83; 0.04256981; 23.876037966796
444.85; 0.042892823; 23.919701009314
445.87; 0.043564363; 23.964047651247
446.88; 0.044311586; 24.009154933688
447.90; 0.044883817; 24.05484472237
448.92; 0.045120381; 24.10077532338
449.94; 0.044984103; 24.146567198679
450.95; 0.044552816; 24.191920042893
451.97; 0.043975406; 24.236685108454
452.99; 0.043409966; 24.280874580168
454.01; 0.0429661; 24.324612215616
455.03; 0.042670079; 24.368048514999
456.04; 0.042462217; 24.41127321987
457.06; 0.042224133; 24.454255565364
458.08; 0.041823731; 24.496830319175
459.10; 0.041160966; 24.538730405955
460.12; 0.040198945; 24.579651197333
461.13; 0.038971554; 24.619322557891
462.15; 0.037567676; 24.657564830632
463.17; 0.036100011; 24.694313084549
464.19; 0.034670762; 24.729606424504
465.21; 0.033345978; 24.763551191157
466.22; 0.032145949; 24.796274380449
467.24; 0.031052576; 24.8278845629
468.26; 0.030028682; 24.858452464882
469.28; 0.029040756; 24.888014701651
470.30; 0.028076483; 24.916595349703
471.31; 0.027151258; 24.944234158309
472.33; 0.026302438; 24.971008905132
473.35; 0.025574481; 24.997042622705
474.37; 0.025001024; 25.022492586479
475.39; 0.024590545; 25.047524699867
476.40; 0.024320534; 25.072281953665
477.42; 0.024142016; 25.096857483681
478.44; 0.023992746; 25.121281064083
479.46; 0.023814735; 25.145523437075
480.48; 0.023570547; 25.169517237011
481.49; 0.023253405; 25.193188200208
482.51; 0.022888151; 25.216487350266
483.53; 0.022522924; 25.239414715104
484.55; 0.022214188; 25.262027799894
485.57; 0.02200961; 25.284432632792
486.58; 0.02193381; 25.306760304747
487.60; 0.021980996; 25.329136010145
488.62; 0.022116321; 25.351649470269
489.64; 0.022285158; 25.374334799377
490.66; 0.022427203; 25.397164724549
491.67; 0.022491108; 25.420059701874
492.69; 0.022445592; 25.442908345565
493.71; 0.022284501; 25.465593005563
494.73; 0.022025454; 25.488013966918
495.74; 0.021703717; 25.510107414043
496.76; 0.021364022; 25.531855066289
497.78; 0.021052871; 25.553285980578
498.80; 0.02081269; 25.574472400687
499.82; 0.020677674; 25.595521380634
500.83; 0.020670183; 25.61656273495
501.85; 0.02079659; 25.637732766265
502.87; 0.02104267; 25.659153296018
503.89; 0.021370232; 25.680907270004
504.91; 0.02171788; 25.703015134171
505.92; 0.022008553; 25.72541889121
506.94; 0.022164642; 25.747981540525
507.96; 0.022128358; 25.770507254235
508.98; 0.021881959; 25.792782143988
510.00; 0.021460779; 25.814628290769
511.01; 0.020952853; 25.835957390536
512.03; 0.020482425; 25.856807615738
513.05; 0.020179857; 25.877349839525
514.07; 0.020145538; 25.89785712747
515.09; 0.020418494; 25.918642273462
516.10; 0.020959998; 25.939978646815
517.12; 0.021658485; 25.962026050158
518.14; 0.022355686; 25.984783173693
519.16; 0.0228871; 26.008081254265
520.18; 0.023125253; 26.031621764333
521.19; 0.023013113; 26.055048120365
522.21; 0.022578103; 26.078031655232
523.23; 0.021923202; 26.100348528983
524.25; 0.021198643; 26.121927832535
525.27; 0.020563373; 26.142860459167
526.28; 0.020147901; 26.163370153213
527.30; 0.020028818; 26.183758625619
528.32; 0.020220844; 26.204342571967
529.34; 0.020686326; 26.225400359348
530.36; 0.021356788; 26.247140647717
531.37; 0.022158035; 26.269696570989
532.39; 0.023030306; 26.293140429054
533.41; 0.023937691; 26.317507965233
534.43; 0.02486541; 26.342819879165
535.45; 0.025807981; 26.369091290052
536.46; 0.026754251; 26.396325963568
537.48; 0.027675958; 26.424498894771
538.50; 0.028524781; 26.453535890573
539.52; 0.029239512; 26.483300452514
540.54; 0.029761234; 26.513596104386
541.55; 0.030051498; 26.544187232299
542.57; 0.030107474; 26.574835341592
543.59; 0.029969004; 26.605342494436
544.61; 0.029715146; 26.635591230443
545.62; 0.029451078; 26.665571157297
546.64; 0.029289046; 26.695386142124
547.66; 0.02932846; 26.725241248952
548.68; 0.029640032; 26.755413522624
549.70; 0.030257136; 26.786213981615
550.71; 0.031175289; 26.817949080923
