#Wavenumber (cm^-1); Spectrum (K*cm*km*mol^-1); Integral (K*km*mol^-1)
0.00; 1.0423843; 1.0611022488236
1.02; 1.0749734; 2.1553787683398
2.04; 1.1718737; 3.3482956017787
3.05; 1.3301951; 4.7023768639591
4.07; 1.544377; 6.274485956752
5.09; 1.8057209; 8.1126318845122
6.11; 2.1026667; 10.253055892431
7.13; 2.4220692; 12.718617796243
8.14; 2.7512561; 15.519277789511
9.16; 3.0802315; 18.654820533451
10.18; 3.4032404; 22.119172431671
11.20; 3.7191218; 25.9050779341
12.22; 4.0303375; 30.00778754841
13.23; 4.3410688; 34.426808239269
14.25; 4.6550836; 39.165482423332
15.27; 4.974073; 44.228874115665
16.29; 5.2968776; 49.620866900358
17.31; 5.6196304; 55.341408109843
18.32; 5.9365542; 61.384564142268
19.34; 6.2410723; 67.737706384232
20.36; 6.5270157; 74.381926750638
21.38; 6.7898867; 81.293738380573
22.40; 7.0281828; 88.448125154457
23.41; 7.244637; 95.822852994063
24.43; 7.4469379; 103.40351445523
25.45; 7.6472941; 111.18812987645
26.47; 7.8603151; 119.18959144664
27.48; 8.0992015; 127.43422910612
28.50; 8.3710363; 135.95558287974
29.52; 8.6727018; 144.78401910158
30.54; 8.9892072; 153.93464417618
31.56; 9.2957264; 163.39729249972
32.57; 9.5634629; 173.1324850785
33.59; 9.7679775; 183.07586470753
34.61; 9.8974319; 193.15102323962
35.63; 9.9578898; 203.28772538047
36.65; 9.9736037; 213.440423517
37.66; 9.9818756; 223.601542143
38.68; 10.024002; 233.80554385416
39.70; 10.135202; 244.12274199829
40.72; 10.336724; 254.64508141448
41.74; 10.632427; 265.46843319912
42.75; 11.010374; 276.67651841378
43.77; 11.448231; 288.33032333012
44.79; 11.920115; 300.46448626138
45.81; 12.402526; 313.08972260875
46.83; 12.877921; 326.19889063695
47.84; 13.335838; 339.77419795455
48.86; 13.772493; 353.79400195138
49.88; 14.190052; 368.23886221069
50.90; 14.596165; 383.09712840033
51.92; 15.003469; 398.37001196967
52.93; 15.428035; 414.07508615105
53.95; 15.885947; 430.24629496797
54.97; 16.388113; 446.92868632293
55.99; 16.934806; 464.1675879339
57.01; 17.512336; 481.9943901889
58.02; 18.094064; 500.41336679969
59.04; 18.64655; 519.39475030174
60.06; 19.139352; 538.87778457657
61.08; 19.554987; 558.78391711681
62.10; 19.894798; 579.03596271889
63.11; 20.177572; 599.57586048592
64.13; 20.43049; 620.37321751615
65.15; 20.675315; 641.41979579878
66.17; 20.915239; 662.71060638257
67.19; 21.128247; 684.21824984325
68.20; 21.270876; 705.87108398122
69.22; 21.292412; 727.54584027288
70.24; 21.155336; 749.08105988721
71.26; 20.85497; 770.31051961383
72.27; 20.430876; 791.10827011299
73.29; 19.965085; 811.43186557231
74.31; 19.566577; 831.34979633493
75.33; 19.346164; 851.04335616387
76.35; 19.389202; 870.78072727606
77.36; 19.734224; 890.86931536309
78.38; 20.363549; 911.59852952021
79.40; 21.208018; 933.18737682744
80.42; 22.163671; 955.74903794278
81.44; 23.115025; 979.27913633289
82.45; 23.958438; 1003.6677919855
83.47; 24.620049; 1028.7299391334
84.49; 25.065243; 1054.2452751011
85.51; 25.299402; 1079.9989745965
86.53; 25.361894; 1105.8162878844
87.54; 25.316201; 1131.5870879609
88.56; 25.238801; 1157.2790978885
89.58; 25.208412; 1182.9401730419
90.60; 25.296178; 1208.6905907999
91.62; 25.556823; 1234.7063340161
92.63; 26.020978; 1261.1945672483
93.65; 26.689576; 1288.3634034659
94.67; 27.531856; 1316.3896449675
95.69; 28.488688; 1345.3899001844
96.71; 29.482116; 1375.4014218905
97.72; 30.430453; 1406.378309793
98.74; 31.266202; 1438.2059542653
99.76; 31.952385; 1470.7321031143
100.78; 32.492278; 1503.8078395696
101.80; 32.92859; 1537.3277231076
102.81; 33.330777; 1571.2570160182
103.83; 33.772836; 1605.6363052176
104.85; 34.307421; 1640.5597789481
105.87; 34.944189; 1676.1314556659
106.89; 35.639873; 1712.4113080104
107.90; 36.304542; 1749.3677650484
108.92; 36.823553; 1786.8525534276
109.94; 37.089334; 1824.6078952838
110.96; 37.033397; 1862.3062949464
111.98; 36.648263; 1899.6126455594
112.99; 35.991866; 1936.250812105
114.01; 35.172612; 1972.05501292
115.03; 34.319798; 2006.9910864009
116.05; 33.54904; 2041.1425613499
117.07; 32.933959; 2074.6679107768
118.08; 32.492995; 2107.7443778446
119.10; 32.194657; 2140.5171494038
120.12; 31.97801; 2173.0693839142
121.14; 31.780105; 2205.4201595204
122.15; 31.560282; 2237.5471642549
123.17; 31.313328; 2269.42278139
124.19; 31.068298; 2301.0489680055
125.21; 30.875328; 2332.4787194197
126.23; 30.786882; 2363.8184363555
127.24; 30.840936; 2395.2131786051
128.26; 31.051721; 2426.8224906297
129.28; 31.409774; 2458.7962855971
130.30; 31.889181; 2491.2580954758
131.32; 32.457501; 2524.2984311558
132.33; 33.083906; 2557.9764202313
133.35; 33.742962; 2592.3252994946
134.37; 34.414231; 2627.35750183
135.39; 35.079908; 2663.0673346093
136.41; 35.723202; 2699.4320125031
137.42; 36.32909; 2736.4134582632
138.44; 36.887144; 2773.9629792892
139.46; 37.394496; 2812.028962767
140.48; 37.856553; 2850.5653004786
141.50; 38.284012; 2889.5367722623
142.51; 38.68653; 2928.9179904245
143.53; 39.065225; 2968.6847035975
144.55; 39.407039; 3008.7993684612
145.57; 39.68365; 3049.1956120755
146.59; 39.856131; 3089.7674331611
147.60; 39.884657; 3130.3682929084
148.62; 39.741013; 3170.8229289528
149.64; 39.420772; 3210.9515737464
150.66; 38.952101; 3250.6031313146
151.68; 38.398745; 3289.6913963211
152.69; 37.855756; 3328.2269219273
153.71; 37.437649; 3366.3368333828
154.73; 37.260021; 3404.2659268921
155.75; 37.417175; 3442.3549967187
156.77; 37.959887; 3480.9965239155
157.78; 38.878505; 3520.5731643402
158.80; 40.096559; 3561.3897310862
159.82; 41.47834; 3603.6128916487
160.84; 42.850594; 3647.2329468503
161.86; 44.034329; 3692.0579932666
162.87; 44.879203; 3737.7430857179
163.89; 45.291436; 3783.8478130114
164.91; 45.247666; 3829.9079849506
165.93; 44.791391; 3875.5036884725
166.94; 44.014143; 3920.3081867445
167.96; 43.028442; 3964.1092842415
168.98; 41.941774; 4006.8042001332
170.00; 40.839553; 4048.3771023123
171.02; 39.780794; 4088.8722341158
172.03; 38.804786; 4128.3738319639
173.05; 37.942771; 4166.9979356496
174.07; 37.227268; 4204.8936880211
175.09; 36.693643; 4242.2462329175
176.11; 36.372843; 4279.2722175226
177.12; 36.278803; 4316.2024733179
178.14; 36.396793; 4353.2528378892
179.16; 36.678756; 4390.5902282719
180.18; 37.048666; 4428.3041712544
181.20; 37.416697; 4466.3927539794
182.21; 37.697458; 4504.7671398474
183.23; 37.826344; 4543.2727256787
184.25; 37.769438; 4581.7203839829
185.27; 37.525552; 4619.919776719
186.29; 37.122092; 4657.7084642482
187.30; 36.608081; 4694.9739111066
188.32; 36.047128; 4731.6683319565
189.34; 35.511073; 4767.8170722439
190.36; 35.072949; 4803.5198207444
191.38; 34.797206; 4838.941874807
192.39; 34.726619; 4874.2920748369
193.41; 34.868235; 4909.7864331707
194.43; 35.183561; 4945.601779601
195.45; 35.589068; 4981.8299155602
196.47; 35.970858; 5018.4466967899
197.48; 36.212464; 5055.3094227596
198.50; 36.229055; 5092.1890374236
199.52; 35.997232; 5128.8326662171
200.54; 35.569412; 5165.0407929489
201.56; 35.065951; 5200.7364179884
202.57; 34.645508; 5236.0040501532
203.59; 34.461936; 5271.0848141107
204.61; 34.621125; 5306.3276258859
205.63; 35.151637; 5342.1104756132
206.65; 35.998395; 5378.7552879203
207.66; 37.040882; 5416.4613074915
208.68; 38.129233; 5455.2752209468
209.70; 39.126242; 5495.104047431
210.72; 39.942483; 5535.763771669
211.74; 40.555203; 5577.047218796
212.75; 41.007854; 5618.7914447844
213.77; 41.393264; 5660.9280014843
214.79; 41.827556; 5703.5066481097
215.81; 42.42281; 5746.6912377959
216.82; 43.264762; 5790.7328989438
217.84; 44.398859; 5835.9290217004
218.86; 45.825405; 5882.5773061455
219.88; 47.503158; 5930.9334715554
220.90; 49.360415; 5981.1802437713
221.91; 51.312433; 6033.4140865093
222.93; 53.283145; 6087.6540291061
223.95; 55.227114; 6143.8728477331
224.97; 57.145581; 6202.0445837467
225.99; 59.089644; 6262.1952912156
227.00; 61.145522; 6324.4387940987
228.02; 63.401972; 6388.9792658392
229.04; 65.906788; 6456.0695325266
230.06; 68.625586; 6525.9274172581
231.08; 71.418563; 6598.6284326107
232.09; 74.047807; 6674.0059043303
233.11; 76.218938; 6751.5934939565
234.13; 77.649141; 6830.6369691017
235.15; 78.142942; 6910.183112222
236.17; 77.651919; 6989.2294154446
237.18; 76.297436; 7066.8969129465
238.20; 74.346151; 7142.57808657
239.22; 72.143219; 7216.0167708627
240.24; 70.022381; 7287.2965334359
241.26; 68.220376; 7356.7419327568
242.27; 66.822107; 7424.7639538564
243.29; 65.752914; 7491.6975825614
244.31; 64.818759; 7557.6802819039
245.33; 63.779542; 7622.6051035912
246.35; 62.430716; 7686.1568783056
247.36; 60.667074; 7747.9133421313
248.38; 58.510159; 7807.4741590542
249.40; 56.093949; 7864.5753781142
250.42; 53.61746; 7919.1556389668
251.44; 51.282674; 7971.3591885354
252.45; 49.238892; 8021.482256077
253.47; 47.550053; 8069.8861580008
254.49; 46.192109; 8116.9077314961
255.51; 45.077095; 8162.7942694415
256.53; 44.092658; 8207.678692804
257.54; 43.142713; 8251.5961124606
258.56; 42.176769; 8294.530243559
259.58; 41.200767; 8336.4708462649
260.60; 40.268682; 8377.4626270216
261.61; 39.459646; 8417.6308435832
262.63; 38.848511; 8457.1769515555
263.65; 38.478603; 8496.3465088413
264.67; 38.344131; 8535.3791793606
265.69; 38.38719; 8574.4556826276
266.70; 38.510878; 8613.6580945618
267.72; 38.606234; 8652.9575744496
268.74; 38.586913; 8692.2373868361
269.76; 38.422454; 8731.3497869016
270.78; 38.159779; 8770.1947952928
271.79; 37.924169; 8808.7999626408
272.81; 37.895679; 8847.3761284275
273.83; 38.264097; 8886.3273280367
274.85; 39.173039; 8926.20379112
275.87; 40.669014; 8967.6030924077
276.88; 42.671919; 9011.0412648236
277.90; 44.978448; 9056.8273836317
278.92; 47.300426; 9104.9771758884
279.94; 49.329022; 9155.1919916784
280.96; 50.806984; 9206.9113084917
281.97; 51.587856; 9259.4255195863
282.99; 51.664956; 9312.0182157809
284.01; 51.162535; 9364.099468698
285.03; 50.293697; 9415.2962821129
286.05; 49.299937; 9465.4814904431
287.06; 48.391886; 9514.7423417265
288.08; 47.708623; 9563.3076611405
289.10; 47.304796; 9611.4619016931
290.12; 47.164181; 9659.4730031598
291.14; 47.229357; 9707.5504503883
292.15; 47.433016; 9755.8352140997
293.17; 47.718414; 9804.4105006416
294.19; 48.043028; 9853.3162297817
295.21; 48.367795; 9902.5525577032
296.23; 48.640661; 9952.0666519592
297.24; 48.785189; 10001.72786942
298.26; 48.702124; 10051.304530171
299.28; 48.285631; 10100.457218803
300.30; 47.449172; 10148.758428136
301.32; 46.15156; 10195.73872468
302.33; 44.413292; 10240.949539059
303.35; 42.316809; 10284.02622413
304.37; 39.990263; 10324.734585916
305.39; 37.580192; 10362.989599418
306.41; 35.222049; 10398.844125372
307.42; 33.0176; 10432.454617405
308.44; 31.02506; 10464.036789766
309.46; 29.262949; 10493.825208594
310.48; 27.72392; 10522.046963135
311.49; 26.391975; 10548.912855087
312.51; 25.256243; 10574.622620519
313.53; 24.316753; 10599.376025667
314.55; 23.581155; 10623.38062391
315.57; 23.054855; 10646.849471366
316.58; 22.729283; 10669.986900569
317.60; 22.573398; 10692.965645761
318.62; 22.532129; 10715.902380308
319.64; 22.532901; 10738.839901142
320.66; 22.498643; 10761.742548517
321.67; 22.363523; 10784.507649926
322.69; 22.086837; 10806.991097146
323.71; 21.660999; 10829.041059371
324.73; 21.111361; 10850.531513688
325.75; 20.487967; 10871.387379521
326.76; 19.851641; 10891.595493888
327.78; 19.258381; 10911.199694372
328.80; 18.746348; 10930.282668032
329.82; 18.328871; 10948.940667585
330.84; 17.994892; 10967.258690796
331.85; 17.716073; 10985.292888834
332.87; 17.457809; 11003.064184849
333.89; 17.190465; 11020.563336375
334.91; 16.897471; 11037.7642329
335.93; 16.578258; 11054.640184393
336.94; 16.245968; 11071.177878283
337.96; 15.921606; 11087.385386259
338.98; 15.627286; 11103.293288999
340.00; 15.381084; 11118.950568649
341.02; 15.195026; 11134.418449728
342.03; 15.076225; 11149.765396419
343.05; 15.029885; 11165.065171098
344.07; 15.062258; 11180.397900031
345.09; 15.181822; 11195.852339408
346.11; 15.397846; 11211.526682428
347.12; 15.716668; 11227.525572717
348.14; 16.136958; 11243.952299333
349.16; 16.645718; 11260.896922116
350.18; 17.216623; 11278.422701269
351.20; 17.811658; 11296.554200658
352.21; 18.386206; 11315.270564857
353.23; 18.896843; 11334.50673579
354.25; 19.310439; 11354.163928982
355.27; 19.612651; 11374.128761346
356.28; 19.813746; 11394.298299621
357.30; 19.949826; 11414.606361401
358.32; 20.078241; 11435.045144567
359.34; 20.267151; 11455.6762299
360.36; 20.580806; 11476.626602815
361.37; 21.063747; 11498.068588788
362.39; 21.728162; 11520.186920104
363.41; 22.548569; 11543.140389999
364.43; 23.466466; 11567.028239906
365.45; 24.404833; 11591.871307066
366.46; 25.28912; 11617.614540347
367.48; 26.068757; 11644.151409785
368.50; 26.732285; 11671.363722227
369.52; 27.310606; 11699.164740821
370.54; 27.866271; 11727.531401816
371.55; 28.471235; 11756.513890525
372.57; 29.179526; 11786.217388443
373.59; 30.003301; 11816.759453987
374.61; 30.900103; 11848.214425699
375.63; 31.775759; 11880.560776888
376.64; 32.50256; 11913.646980146
377.66; 32.947711; 11947.186328102
378.68; 33.004099; 11980.783076633
379.70; 32.61517; 12013.98391218
380.72; 31.787954; 12046.342678144
381.73; 30.592079; 12077.484094334
382.75; 29.146493; 12107.153966516
383.77; 27.59835; 12135.247896095
384.79; 26.099331; 12161.815889112
385.81; 24.783895; 12187.04482428
386.82; 23.752224; 12211.223563801
387.84; 23.059008; 12234.696638903
388.86; 22.708227; 12257.812634075
389.88; 22.653994; 12280.873422647
390.90; 22.807628; 12304.090603831
391.91; 23.051001; 12327.555528345
392.93; 23.255298; 12351.228418527
393.95; 23.302772; 12374.949634739
394.97; 23.107525; 12398.472098181
395.99; 22.630639; 12421.50911169
397.00; 21.885724; 12443.787834523
398.02; 20.933281; 12465.097011062
399.04; 19.865359; 12485.319089306
400.06; 18.784889; 12504.441295225
401.07; 17.78545; 12522.546115823
402.09; 16.936704; 12539.786949549
403.11; 16.278346; 12556.357603484
404.13; 15.822314; 12572.464035878
405.15; 15.560305; 12588.303754562
406.16; 15.472541; 12604.054134034
407.18; 15.534399; 12619.867481701
408.20; 15.719559; 12635.869314614
409.22; 16.000602; 12652.157236813
410.24; 16.349294; 12668.800112585
411.25; 16.738663; 12685.83934889
412.27; 17.147383; 12703.294644718
413.29; 17.564996; 12721.175052503
414.31; 17.99513; 12739.493318473
415.33; 18.454075; 12758.278770324
416.34; 18.963831; 12777.583132107
417.36; 19.541398; 12797.475432254
418.38; 20.188267; 12818.026216485
419.40; 20.884737; 12839.285977667
420.42; 21.592244; 12861.265950523
421.43; 22.263788; 12883.929525914
422.45; 22.859119; 12907.199122322
423.47; 23.358983; 12930.977559151
424.49; 23.772641; 12955.177081759
425.51; 24.135176; 12979.745649852
426.52; 24.494997; 13004.680499872
427.54; 24.895774; 13030.023323556
428.56; 25.359343; 13055.838040572
429.58; 25.875802; 13082.178490181
430.60; 26.404314; 13109.056942093
431.61; 26.884087; 13136.423782513
432.63; 27.251266; 13164.164395304
433.65; 27.45555; 13192.112960808
434.67; 27.470922; 13220.077174131
435.69; 27.297567; 13247.86491916
436.70; 26.955706; 13275.304664683
437.72; 26.475079; 13302.255152418
438.74; 25.885017; 13328.604982712
439.76; 25.209094; 13354.266752918
440.78; 24.465745; 13379.17182556
441.79; 23.673277; 13403.270200125
442.81; 22.855664; 13426.536279526
443.83; 22.045232; 13448.97737467
444.85; 21.279943; 13470.639437996
445.87; 20.59559; 13491.604859448
446.88; 20.015807; 13511.980087518
447.90; 19.54408; 13531.87511733
448.92; 19.161505; 13551.380702555
449.94; 18.832009; 13570.550875572
450.95; 18.513903; 13589.397229699
451.97; 18.174217; 13607.897798237
452.99; 17.801136; 13626.018587025
454.01; 17.410396; 13643.741618825
455.03; 17.043531; 13661.091198036
456.04; 16.758539; 13678.150667929
457.06; 16.615844; 13695.064880472
458.08; 16.663698; 13712.027805488
459.10; 16.926967; 13729.258727919
460.12; 17.401895; 13746.973106062
461.13; 18.057446; 13765.35480697
462.15; 18.842108; 13784.535259808
463.17; 19.693896; 13804.582795886
464.19; 20.551154; 13825.502983965
465.21; 21.362246; 13847.248828222
466.22; 22.092994; 13869.738543234
467.24; 22.731361; 13892.878087932
468.26; 23.289052; 13916.585338256
469.28; 23.799693; 13940.81239865
470.30; 24.313124; 13965.562109282
471.31; 24.885699; 13990.894677463
472.33; 25.567321; 14016.9211065
473.35; 26.387179; 14043.782115733
474.37; 27.341381; 14071.614462253
475.39; 28.386096; 14100.510282837
476.40; 29.439171; 14130.478088327
477.42; 30.391289; 14161.415109078
478.44; 31.125005; 14193.099021198
479.46; 31.537446; 14225.202780511
480.48; 31.560939; 14257.33045422
481.49; 31.17609; 14289.066368433
482.51; 30.413946; 14320.026453489
483.53; 29.34715; 14349.900586183
484.55; 28.073348; 14378.478043195
485.57; 26.696263; 14405.653686775
486.58; 25.310001; 14431.418175511
487.60; 23.990306; 14455.839272061
488.62; 22.793379; 14479.041948505
489.64; 21.759842; 14501.192528943
490.66; 20.919726; 14522.487906902
491.67; 20.294648; 14543.146982891
492.69; 19.895494; 14563.399737458
493.71; 19.716823; 14583.470611978
494.73; 19.731596; 14603.556524986
495.74; 19.890452; 14623.804146743
496.76; 20.128248; 14644.293835105
497.78; 20.377578; 14665.037330217
498.80; 20.585682; 14685.992666118
499.82; 20.729133; 14707.0940286
500.83; 20.820811; 14728.288715823
501.85; 20.906119; 14749.570243018
502.87; 21.049131; 14770.997350198
503.89; 21.313014; 14792.693078289
504.91; 21.741089; 14814.824568823
505.92; 22.344612; 14837.570419338
506.94; 23.100849; 14861.086086853
507.96; 23.961465; 14885.477823909
508.98; 24.867862; 14910.792234585
510.00; 25.768274; 14937.02322599
511.01; 26.631432; 14964.132875045
512.03; 27.453332; 14992.079182242
513.05; 28.256035; 15020.842606837
514.07; 29.07966; 15050.444446143
515.09; 29.970046; 15080.952659757
516.10; 30.964976; 15112.473669167
517.12; 32.081593; 15145.131346301
518.14; 33.307229; 15179.036668429
519.16; 34.595547; 15214.253441921
520.18; 35.869504; 15250.767049664
521.19; 37.031929; 15288.463955496
522.21; 37.982989; 15327.128999486
523.23; 38.641838; 15366.464722894
524.25; 38.967603; 15406.132061193
525.27; 38.973772; 15445.805679268
526.28; 38.730641; 15485.231800459
527.30; 38.353198; 15524.273701067
528.32; 37.976012; 15562.931642182
529.34; 37.721101; 15601.33009501
530.36; 37.667752; 15639.674240644
531.37; 37.833532; 15678.187143282
532.39; 38.172961; 15717.045570184
533.41; 38.595159; 15756.333776772
534.43; 38.995948; 15796.02996888
535.45; 39.295262; 15836.030850376
536.46; 39.468894; 15876.20848095
537.48; 39.565074; 15916.48401888
538.50; 39.700751; 15956.897669846
539.52; 40.038097; 15997.654724459
540.54; 40.747158; 16039.133573406
541.55; 41.964031; 16081.851146157
542.57; 43.754776; 16126.391620243
543.59; 46.093514; 16173.312828086
544.61; 48.859437; 16223.049626397
545.62; 51.853039; 16275.833782651
546.64; 54.827679; 16331.645993955
547.66; 57.529634; 16390.208679287
548.68; 59.738474; 16451.019867786
549.70; 61.300022; 16513.420644472
550.71; 62.146189; 16576.682782654
551.73; 62.298983; 16640.100459471
552.75; 61.859432; 16703.070691509
553.77; 60.985145; 16765.150937458
554.79; 59.862218; 16826.088091775
555.80; 58.677547; 16885.819302126
556.82; 57.596578; 16944.450133382
557.84; 56.749291; 17002.218462483
558.86; 56.224708; 17059.452789195
559.88; 56.072238; 17116.531907594
560.89; 56.307226; 17173.850233592
561.91; 56.918475; 17231.790784792
562.93; 57.876639; 17290.70670588
563.95; 59.14364; 17350.912379401
564.97; 60.683717; 17412.685785068
565.98; 62.475966; 17476.283622751
567.00; 64.526385; 17541.968698247
568.02; 66.875332; 17610.044900406
569.04; 69.595094; 17680.889702798
570.06; 72.773097; 17754.969575346
571.07; 76.47968; 17832.822589207
572.09; 80.724789; 17914.996941021
573.11; 85.41391; 18001.944615819
574.13; 90.317696; 18093.88413324
575.15; 95.069884; 18190.6611725
576.16; 99.202897; 18291.645441346
577.18; 102.22053; 18395.701528304
578.20; 103.69474; 18501.258301442
579.22; 103.36308; 18606.477460295
580.24; 101.19862; 18709.493284528
581.25; 97.428796; 18808.671594771
582.27; 92.493114; 18902.825593384
583.29; 86.948235; 18991.335144792
584.31; 81.347435; 19074.143323691
