#Wavenumber (cm^-1); Spectrum (K*cm*km*mol^-1); Integral (K*km*mol^-1)
0.00; 2.5741931; 2.6204174991009
1.02; 2.6707747; 5.3391509140904
2.04; 2.9541581; 8.346356331678
3.05; 3.4065968; 11.814124847351
4.07; 4.0025598; 15.888557956812
5.09; 4.7134923; 20.686689722166
6.11; 5.51233; 26.298003804652
7.13; 6.3765216; 32.789027674319
8.14; 7.2888814; 40.208794452185
9.16; 8.2363397; 48.593032826156
10.18; 9.2073245; 57.965691820042
11.20; 10.188868; 68.337519961836
12.22; 11.164495; 79.702493918514
13.23; 12.113574; 92.033589427495
14.25; 13.012299; 105.27954819386
15.27; 13.835975; 119.36397337965
16.29; 14.562031; 134.18749238321
17.31; 15.173149; 149.63310284875
18.32; 15.660021; 165.57432848809
19.34; 16.02342; 181.88547862511
20.36; 16.275311; 198.45304263382
21.38; 16.438726; 215.18695642762
22.40; 16.546072; 232.03014325178
23.41; 16.635622; 248.96448875603
24.43; 16.746296; 266.01149565312
25.45; 16.911319; 283.226488395
26.47; 17.151961; 300.68644504796
27.48; 17.4729; 318.473102811
28.50; 17.860639; 336.65446241417
29.52; 18.285851; 355.26866917217
30.54; 18.709443; 374.31407431139
31.56; 19.091112; 393.7480022342
32.57; 19.398345; 413.49467998439
33.59; 19.613651; 433.46053041985
34.61; 19.7383; 453.55326767213
35.63; 19.791791; 473.70045730431
36.65; 19.807419; 493.86355518388
37.66; 19.825137; 514.04468939388
38.68; 19.883404; 534.28513696216
39.70; 20.011611; 554.65609312567
40.72; 20.224363; 575.24362164506
41.74; 20.518455; 596.13052337106
42.75; 20.872994; 617.3783301227
43.77; 21.252819; 639.01278320283
44.79; 21.615008; 661.01592840477
45.81; 21.917666; 683.32716679047
46.83; 22.129531; 705.85407437668
47.84; 22.238199; 728.49160087003
48.86; 22.254583; 751.14580634475
49.88; 22.211704; 773.75636232751
50.90; 22.15725; 796.31148637658
51.92; 22.141284; 818.8503583621
52.93; 22.202262; 841.45130322754
53.95; 22.35554; 864.20827848075
54.97; 22.58819; 887.20208111374
55.99; 22.862123; 910.47473596582
57.01; 23.124845; 934.01483042734
58.02; 23.324512; 957.75817732576
59.04; 23.424411; 981.60321708705
60.06; 23.412156; 1005.435781145
61.08; 23.300805; 1029.1549954715
62.10; 23.12206; 1052.6922552457
63.11; 22.914514; 1076.0182421927
64.13; 22.711579; 1099.1376491617
65.15; 22.533474; 1122.0757537638
66.17; 22.385775; 1144.8635064704
67.19; 22.264168; 1167.5274689701
68.20; 22.162607; 1190.0880470447
69.22; 22.080792; 1212.5653403271
70.24; 22.027483; 1234.9883675711
71.26; 22.018161; 1257.4019049752
72.27; 22.068087; 1279.8662656225
73.29; 22.183879; 1302.4484975033
74.31; 22.357321; 1325.2072856021
75.33; 22.564216; 1348.1766839589
76.35; 22.768974; 1371.3545165207
77.36; 22.933317; 1394.6996439512
78.38; 23.025939; 1418.1390564547
79.40; 23.029704; 1441.5823017931
80.42; 22.944183; 1464.9384901995
81.44; 22.783258; 1488.130863322
82.45; 22.569479; 1511.1056186517
83.47; 22.327918; 1533.8344761021
84.49; 22.082083; 1556.3130832763
85.51; 21.853155; 1578.5586524037
86.53; 21.66206; 1600.6096949538
87.54; 21.532326; 1622.5286731652
88.56; 21.491205; 1644.4057922974
89.58; 21.567167; 1666.36023744
90.60; 21.783482; 1688.5348820791
91.62; 22.149554; 1711.0821722887
92.63; 22.653079; 1734.142029287
93.65; 23.256445; 1757.8160867411
94.67; 23.89978; 1782.145031661
95.69; 24.510995; 1807.0961669858
96.71; 25.020711; 1832.5661706845
97.72; 25.378001; 1858.399880931
98.74; 25.562148; 1884.4210449375
99.76; 25.586463; 1910.4669604744
100.78; 25.492547; 1936.417273393
101.80; 25.3364; 1962.2086349919
102.81; 25.170594; 1987.8312131551
103.83; 25.028277; 2013.3089192881
104.85; 24.914431; 2038.6707348735
105.87; 24.807545; 2063.9237455094
106.89; 24.671365; 2089.038130441
107.90; 24.472724; 2113.9503076922
108.92; 24.199065; 2138.5839116478
109.94; 23.868954; 2162.8814766899
110.96; 23.53105; 2186.83507069
111.98; 23.250914; 2210.5034973188
112.99; 23.089447; 2234.007557997
114.01; 23.08011; 2257.5021137268
115.03; 23.212952; 2281.131896888
116.05; 23.431641; 2304.9842963247
117.07; 23.645448; 2329.0543420414
118.08; 23.753088; 2353.2339605864
119.10; 23.671173; 2377.3301932874
120.12; 23.358297; 2401.1079315919
121.14; 22.827116; 2424.3449506855
122.15; 22.140739; 2446.8832675705
123.17; 21.394882; 2468.6623342703
124.19; 20.691772; 2489.725665211
125.21; 20.114117; 2510.2009682213
126.23; 19.706904; 2530.2617464978
127.24; 19.471678; 2550.0830744397
128.26; 19.373549; 2569.8045116222
129.28; 19.357155; 2589.509259668
130.30; 19.365442; 2609.2224441679
131.32; 19.355209; 2628.9252115716
132.33; 19.30538; 2648.5772552862
133.35; 19.217135; 2668.1394691569
134.37; 19.107827; 2687.5904126665
135.39; 19.002247; 2706.9338798631
136.41; 18.924726; 2726.1984344901
137.42; 18.894266; 2745.4319817356
138.44; 18.922999; 2764.6947782521
139.46; 19.016846; 2784.0531072557
140.48; 19.17665; 2803.5741091126
141.50; 19.39852; 2823.3209652389
142.51; 19.673152; 2843.34738511
143.53; 19.98487; 2863.6911206026
144.55; 20.311626; 2884.3674798785
145.57; 20.626913; 2905.3647868571
146.59; 20.903716; 2926.6438677193
147.60; 21.119705; 2948.1428160679
148.62; 21.262209; 2969.7868273778
149.64; 21.331529; 2991.5014037638
150.66; 21.341655; 3013.2262881242
151.68; 21.318295; 3034.9273925253
152.69; 21.294886; 3056.6046676254
153.71; 21.307672; 3078.2949577483
154.73; 21.390881; 3100.0699515659
155.75; 21.572715; 3122.0300443143
156.77; 21.872385; 3144.2951885844
157.78; 22.298176; 3166.9937696462
158.80; 22.846427; 3190.250446615
159.82; 23.50149; 3214.1739488588
160.84; 24.236872; 3238.8460383789
161.86; 25.017811; 3264.3130906951
162.87; 25.805282; 3290.5817537653
163.89; 26.560991; 3317.619696546
164.91; 27.252438; 3345.3615028212
165.93; 27.856763; 3373.7184853854
166.94; 28.362205; 3402.5899865253
167.96; 28.766542; 3431.8730851437
168.98; 29.072818; 3461.4679593869
170.00; 29.283795; 3491.2775991936
171.02; 29.397386; 3521.2028700063
172.03; 29.405527; 3551.1364277159
173.05; 29.298202; 3580.9607330395
174.07; 29.072697; 3610.5554842289
175.09; 28.745971; 3639.8176418697
176.11; 28.366033; 3668.6930392758
177.12; 28.017254; 3697.2133952608
178.14; 27.815229; 3725.5280981197
179.16; 27.889417; 3753.9183212143
180.18; 28.355745; 3782.7832457662
181.20; 29.285465; 3812.5945854311
182.21; 30.679367; 3843.8248569524
183.23; 32.456524; 3876.8641973854
184.25; 34.463646; 3911.9467014579
185.27; 36.505325; 3949.1075474721
186.29; 38.388731; 3988.1856194568
187.30; 39.970909; 4028.8742795445
188.32; 41.194883; 4070.8088930584
189.34; 42.103289; 4113.6682249052
190.36; 42.82473; 4157.2619519928
191.38; 43.536521; 4201.580251403
192.39; 44.414971; 4246.7927750172
193.41; 45.58823; 4293.1996261226
194.43; 47.10557; 4341.1510641201
195.45; 48.93113; 4390.9608429568
196.47; 50.961823; 4442.8377799672
197.48; 53.06133; 4496.8519245179
198.50; 55.097671; 4552.9389763304
199.52; 56.972259; 4610.9342776825
200.54; 58.63302; 4670.620161658
201.56; 60.071017; 4731.7698645821
202.57; 61.306102; 4794.1768311525
203.59; 62.370033; 4857.6668330603
204.61; 63.294348; 4922.0977479675
205.63; 64.106036; 4987.3549265891
206.65; 64.828926; 5053.3479758245
207.66; 65.485406; 5120.0092934286
208.68; 66.093154; 5187.2892721632
209.70; 66.654977; 5255.1411628462
210.72; 67.144911; 5323.491785094
211.74; 67.497731; 5392.2015626732
212.75; 67.609762; 5461.0253825486
213.77; 67.355487; 5529.5903619796
214.79; 66.618132; 5597.4047457187
215.81; 65.325755; 5663.9035453842
216.82; 63.480514; 5728.5239688819
217.84; 61.169655; 5790.7920382097
218.86; 58.552524; 5850.3959806681
219.88; 55.82637; 5907.2248165242
220.90; 53.181639; 5961.3614300827
221.91; 50.761405; 6013.0343503506
222.93; 48.638031; 6062.54576756
223.95; 46.813466; 6110.1998555374
224.97; 45.240648; 6156.2528831099
225.99; 43.855846; 6200.8962414397
227.00; 42.608524; 6244.2698798302
228.02; 41.477719; 6286.4924075503
229.04; 40.47058; 6327.6897120527
230.06; 39.606763; 6368.0076872243
231.08; 38.898133; 6407.6043079946
232.09; 38.334444; 6446.6271173154
233.11; 37.881855; 6485.1892112107
234.13; 37.494494; 6523.3569882861
235.15; 37.132749; 6561.1565240973
236.17; 36.778809; 6598.5957643425
237.18; 36.441452; 6635.69159029
238.20; 36.147491; 6672.488176601
239.22; 35.923986; 6709.0572446498
240.24; 35.780097; 6745.479839815
241.26; 35.697936; 6781.8187981418
242.27; 35.63772; 6818.0964587844
243.29; 35.555708; 6854.2906356081
244.31; 35.427018; 6890.3538111293
245.33; 35.262456; 6926.2494701053
246.35; 35.110545; 6961.9904893692
247.36; 35.042101; 6997.661836503
248.38; 35.122548; 7033.4150747004
249.40; 35.382965; 7069.4334057331
250.42; 35.802272; 7105.8785736025
251.44; 36.308961; 7142.8395292621
252.45; 36.803128; 7180.3035254517
253.47; 37.191311; 7218.1626754486
254.49; 37.421192; 7256.2558342277
255.51; 37.502804; 7294.4320701106
256.53; 37.507678; 7332.6132675735
257.54; 37.545396; 7370.8328604139
258.56; 37.725182; 7409.2354675455
259.58; 38.115414; 7448.035314315
260.60; 38.71448; 7487.4449847949
261.61; 39.442324; 7527.595568493
262.63; 40.155102; 7568.4717298858
263.65; 40.678197; 7609.8803792989
264.67; 40.847753; 7651.4616291143
265.69; 40.549351; 7692.739118354
266.70; 39.744303; 7733.1971036376
267.72; 38.478267; 7772.3663186808
268.74; 36.871791; 7809.9002111662
269.76; 35.096556; 7845.626990814
270.78; 33.343558; 7879.5692942887
271.79; 31.790196; 7911.9303424679
272.81; 30.572401; 7943.0517277029
273.83; 29.766236; 7973.3524719092
274.85; 29.38124; 8003.2613064809
275.87; 29.365569; 8033.1541888814
276.88; 29.621024; 8063.3071131762
277.90; 30.024506; 8093.8707647028
278.92; 30.451638; 8124.8692184032
279.94; 30.798288; 8156.2205469686
280.96; 30.996576; 8187.7737240109
281.97; 31.023351; 8219.3541566671
282.99; 30.900677; 8250.8097127667
284.01; 30.689151; 8282.049943846
285.03; 30.475641; 8313.0728307986
286.05; 30.35737; 8343.9753239259
287.06; 30.424364; 8374.9460140258
288.08; 30.742496; 8406.2405479753
289.10; 31.339751; 8438.14306176
290.12; 32.198614; 8470.9198615403
291.14; 33.257198; 8504.7742541951
292.15; 34.420431; 8539.8127678745
293.17; 35.580218; 8576.0318945327
294.19; 36.640508; 8613.3303509684
295.21; 37.540725; 8651.545188827
296.23; 38.270213; 8690.5026140792
297.24; 38.868088; 8730.0686501035
298.26; 39.406984; 8770.1832592733
299.28; 39.964636; 8810.8655336842
300.30; 40.592015; 8852.1864536955
301.32; 41.28899; 8894.2168633676
302.33; 41.996856; 8936.9678503419
303.35; 42.611889; 8980.3449144843
304.37; 43.016721; 9024.1340805931
305.39; 43.119639; 9068.0280126022
306.41; 42.888292; 9111.68644363
307.42; 42.365503; 9154.8126976087
308.44; 41.660661; 9197.221452873
309.46; 40.918701; 9238.8749251099
310.48; 40.276769; 9279.8749374716
311.49; 39.823354; 9320.4133933298
312.51; 39.57406; 9360.6980783442
313.53; 39.472341; 9400.8792177276
314.55; 39.414675; 9441.0016564198
315.57; 39.290924; 9480.9981217485
316.58; 39.025373; 9520.7242677162
317.60; 38.604064; 9560.0215386976
318.62; 38.079322; 9598.7846453216
319.64; 37.550846; 9637.0097863447
320.66; 37.131012; 9674.8075546003
321.67; 36.907187; 9712.3774786223
322.69; 36.914023; 9749.9543612824
323.71; 37.124216; 9787.7452111539
324.73; 37.459041; 9825.8768988372
325.75; 37.813034; 9864.3689362113
326.76; 38.08304; 9903.1358272657
327.78; 38.191788; 9942.0134193757
328.80; 38.099711; 9980.7972807438
329.82; 37.804043; 10019.28016487
330.84; 37.329059; 10057.279536296
331.85; 36.713697; 10094.652495436
332.87; 36.00221; 10131.301191513
333.89; 35.240614; 10167.174616195
334.91; 34.478081; 10202.27181482
335.93; 33.769829; 10236.648044002
336.94; 33.177505; 10270.421312039
337.96; 32.764495; 10303.774153619
338.98; 32.58631; 10336.945611014
340.00; 32.678694; 10370.211111766
341.02; 33.047496; 10403.852036281
342.03; 33.664047; 10438.120583494
343.05; 34.46814; 10473.207663045
344.07; 35.378377; 10509.221323805
345.09; 36.307591; 10546.180884986
346.11; 37.179776; 10584.028292635
347.12; 37.944667; 10622.654326687
348.14; 38.586844; 10661.934068493
349.16; 39.127498; 10701.76417314
350.18; 39.61875; 10742.094350696
351.20; 40.13214; 10782.947137066
352.21; 40.744509; 10824.42328941
353.23; 41.525361; 10866.694315249
354.25; 42.529634; 10909.987647861
355.27; 43.798347; 10954.572475037
356.28; 45.366929; 11000.754050946
357.30; 47.278007; 11048.881022211
358.32; 49.59299; 11099.364545567
359.34; 52.396141; 11152.701555925
360.36; 55.786567; 11209.489874193
361.37; 59.857352; 11270.422075647
362.39; 64.66586; 11336.249130372
363.41; 70.203225; 11407.712983784
364.43; 76.372632; 11485.45702749
365.45; 82.984361; 11569.931526274
366.46; 89.771035; 11661.314565743
367.48; 96.420512; 11759.466485787
368.50; 102.61847; 11863.927655133
369.52; 108.08971; 11973.958313222
370.54; 112.62784; 12088.608594177
371.55; 116.10662; 12206.800122307
372.57; 118.4723; 12327.399813362
373.59; 119.72224; 12449.271882377
374.61; 119.87923; 12571.303762008
375.63; 118.9724; 12692.412528037
376.64; 117.03287; 12811.546943682
377.66; 114.10746; 12927.703411748
378.68; 110.28667; 13039.970481459
379.70; 105.73742; 13147.60661347
380.72; 100.72687; 13250.142222993
381.73; 95.624354; 13347.483688846
382.75; 90.873133; 13439.988617282
383.77; 86.93222; 13528.481865593
384.79; 84.198271; 13614.192072299
385.81; 82.925823; 13698.60698143
386.82; 83.1675; 13783.26790769
387.84; 84.752843; 13869.542644484
388.86; 87.315042; 13958.425589148
389.88; 90.3618; 14050.410001956
390.90; 93.373719; 14145.460418965
391.91; 95.905361; 14243.087938449
392.93; 97.663302; 14342.504965545
393.95; 98.542481; 14442.816959229
394.97; 98.614543; 14543.202308394
395.99; 98.075506; 14643.038941275
397.00; 97.170617; 14741.954436776
398.02; 96.118584; 14839.799007763
399.04; 95.054995; 14936.560891321
400.06; 94.007284; 15032.256249901
401.07; 92.904035; 15126.828548597
402.09; 91.612798; 15220.086423667
403.11; 89.99466; 15311.697104487
404.13; 87.961218; 15401.23782891
405.15; 85.519829; 15488.293324148
406.16; 82.795579; 15572.575650403
407.18; 80.022974; 15654.035584758
408.20; 77.506853; 15732.934216663
409.22; 75.559888; 15809.850922364
410.24; 74.431646; 15885.619126417
411.25; 74.248898; 15961.201300144
412.27; 74.985964; 16037.533776127
413.29; 76.476122; 16115.383168638
414.31; 78.461887; 16195.25398356
415.33; 80.667828; 16277.370351016
416.34; 82.870249; 16361.728688515
417.36; 84.938433; 16448.1923483
418.38; 86.833273; 16536.584873464
419.40; 88.56719; 16626.742451276
420.42; 90.146625; 16718.507826021
421.43; 91.526935; 16811.678296657
422.45; 92.604398; 16905.94557776
423.47; 93.252646; 17000.872747423
424.49; 93.388688; 17095.93840186
425.51; 93.037302; 17190.646360178
426.52; 92.360525; 17284.665389437
427.54; 91.633318; 17377.944153467
428.56; 91.171257; 17470.752559121
429.58; 91.239703; 17563.63063934
430.60; 91.984344; 17657.266731769
431.61; 93.414296; 17752.358454036
432.63; 95.444296; 17849.516628835
433.65; 97.973539; 17949.249464061
434.67; 100.95996; 18052.022350252
435.69; 104.45043; 18158.348384358
436.70; 108.54961; 18268.847201338
437.72; 113.34273; 18384.225210136
438.74; 118.81363; 18505.172355509
439.76; 124.80453; 18632.217979799
440.78; 131.04467; 18765.615795356
441.79; 137.23875; 18905.31892096
442.81; 143.17268; 19051.062530573
443.83; 148.78103; 19202.515196398
444.85; 154.13812; 19359.421150925
445.87; 159.37564; 19521.658673447
446.88; 164.57444; 19689.188354833
447.90; 169.70208; 19861.937745598
448.92; 174.65379; 20039.727771394
449.94; 179.40561; 20222.354935829
450.95; 184.22395; 20409.886966277
451.97; 189.83044; 20603.126167741
452.99; 197.41926; 20804.090453018
454.01; 208.47716; 21016.311202259
455.03; 224.44405; 21244.785557408
456.04; 246.33568; 21495.544651381
457.06; 274.48782; 21774.961404634
458.08; 308.54688; 22089.048819077
459.10; 347.73286; 22443.025862638
460.12; 391.27505; 22841.326978242
461.13; 438.82802; 23288.034965878
462.15; 490.66165; 23787.507348396
463.17; 547.50304; 24344.841812312
464.19; 610.06032; 24965.856889919
465.21; 678.41549; 25656.454584001
466.22; 751.5618; 26421.512064602
467.24; 827.33095; 27263.699274075
468.26; 902.80686; 28182.717702277
469.28; 975.11042; 29175.338036127
470.30; 1042.254; 30236.30767244
471.31; 1103.6924; 31359.818860539
472.33; 1160.2819; 32540.935775229
473.35; 1213.5855; 33776.313435269
474.37; 1264.7329; 35063.756999419
475.39; 1313.2652; 36400.604342784
476.40; 1356.4455; 37781.407317382
477.42; 1389.3841; 39195.740327191
478.44; 1406.0373; 40627.025595826
479.46; 1400.8103; 42052.989996282
480.48; 1370.2531; 43447.848480461
481.49; 1314.285; 44785.733889647
482.51; 1236.5386; 46044.476819575
483.53; 1143.7205; 47208.73493141
484.55; 1044.2224; 48271.708260572
485.57; 946.44908; 49235.152587726
486.58; 857.37834; 50107.926738902
487.60; 781.72167; 50903.685661244
488.62; 721.79103; 51638.437787026
489.64; 677.91031; 52328.521226358
490.66; 649.05298; 52989.229155631
491.67; 633.39291; 53633.995804189
492.69; 628.59955; 54273.88302168
493.71; 631.90946; 54917.139586623
494.73; 640.15623; 55568.791004265
495.74; 649.96875; 56230.4311454
496.76; 658.24282; 56900.49392886
497.78; 662.81165; 57575.207587369
498.80; 663.08271; 58250.197176962
499.82; 660.35596; 58922.411048215
500.83; 657.62605; 59591.845993491
501.85; 658.86271; 60262.539797794
502.87; 667.97213; 60942.506599939
503.89; 687.77247; 61642.629299598
504.91; 719.30746; 62374.853253444
505.92; 761.68131; 63150.211960686
506.94; 812.39296; 63977.192934993
507.96; 867.97403; 64860.753038101
508.98; 924.67079; 65802.027997595
510.00; 978.97435; 66798.581639259
511.01; 1027.9501; 67844.990510255
512.03; 1069.459; 68933.653649478
513.05; 1102.4154; 70055.864962013
514.07; 1127.1566; 71203.261741315
515.09; 1145.8407; 72369.678166537
516.10; 1162.6343; 73553.189744636
517.12; 1183.399; 74757.838817215
518.14; 1214.696; 75994.346878912
519.16; 1262.1797; 77279.191298385
520.18; 1328.7476; 78631.799017482
521.19; 1413.026; 80070.198476245
522.21; 1508.7789; 81606.070246269
523.23; 1605.6057; 83240.507590219
524.25; 1690.8951; 84961.765867188
525.27; 1752.5768; 86745.81341971
526.28; 1781.9196; 88559.730668649
527.30; 1775.5771; 90367.191546419
528.32; 1736.3072; 92134.67734905
529.34; 1672.2049; 93836.909772315
530.36; 1594.7397; 95460.285997544
531.37; 1516.2192; 97003.731695033
532.39; 1447.4067; 98477.129267293
533.41; 1395.8909; 99898.085947203
534.43; 1365.5049; 101288.11099336
535.45; 1356.7544; 102669.22838694
536.46; 1367.9433; 104061.73566233
537.48; 1396.5623; 105483.37582557
538.50; 1440.5243; 106949.76740202
539.52; 1498.9558; 108475.63974055
540.54; 1572.4075; 110076.28267455
541.55; 1662.4898; 111768.62556065
542.57; 1771.0465; 113571.47443149
543.59; 1899.0522; 115504.62763283
544.61; 2045.4843; 117586.84242934
545.62; 2206.4548; 119832.91824421
546.64; 2374.8902; 122250.45400734
547.66; 2540.9716; 124837.05345748
548.68; 2693.3855; 127578.80365837
549.70; 2821.208; 130450.67169372
550.71; 2916.0169; 133419.05107898
551.73; 2973.6807; 136446.12973565
552.75; 2995.2909; 139495.20657268
553.77; 2986.8961; 142535.73786219
554.79; 2958.0297; 145546.88442185
555.80; 2919.3792; 148518.68646897
556.82; 2880.2124; 151450.61841193
557.84; 2846.2492; 154347.97731091
558.86; 2818.5263; 157217.11541442
559.88; 2793.4941; 160060.77184705
560.89; 2764.2277; 162874.636404
561.91; 2722.339; 165645.8600373
562.93; 2660.0456; 168353.67167806
563.95; 2571.8963; 170971.75115444
564.97; 2455.8287; 173471.67880364
565.98; 2313.462; 175826.68326341
567.00; 2149.718; 178015.00346863
568.02; 1971.9686; 180022.3823608
569.04; 1788.9242; 181843.43004558
570.06; 1609.4501; 183481.78074773
571.07; 1441.4495; 184949.11410048
572.09; 1290.9424; 186263.23778452
573.11; 1161.4584; 187445.55232078
574.13; 1053.853; 188518.32919076
575.15; 966.60367; 189502.29001165
576.16; 896.53991; 190414.92895044
577.18; 839.84005; 191269.84987757
578.20; 793.0309; 192077.12111624
579.22; 753.70706; 192844.36237563
580.24; 720.76817; 193578.07327052
581.25; 694.13649; 194284.67426491
582.27; 674.10441; 194970.88346464
583.29; 660.59981; 195643.34556266
584.31; 652.68676; 196307.75252121
585.33; 648.52542; 196967.92341618
