#Wavenumber (cm^-1); Spectrum (K*cm*km*mol^-1); Integral (K*km*mol^-1)
0.00; 22.369068; 22.770745482337
1.02; 23.487091; 46.679590146254
2.04; 26.781449; 73.941949670879
3.05; 32.065621; 106.58336834921
4.07; 39.012036; 146.29593715202
5.09; 47.150586; 194.29319885724
6.11; 55.900494; 251.19748923697
7.13; 64.644983; 317.00329207979
8.14; 72.839251; 391.15050681864
9.16; 80.12376; 472.71303697212
10.18; 86.405553; 560.67016099114
11.20; 91.875464; 654.19541908148
12.22; 96.947918; 752.88421607315
13.23; 102.13606; 856.85432220269
14.25; 107.89841; 966.69024877091
15.27; 114.50463; 1083.2510215792
16.29; 121.96311; 1207.4042008385
17.31; 130.03249; 1339.7716676533
18.32; 138.31137; 1480.5666744154
19.34; 146.37418; 1629.569269599
20.36; 153.9072; 1786.2401555646
21.38; 160.80029; 1949.9279071097
22.40; 167.1669; 2120.0965976172
23.41; 173.29053; 2296.4988830884
24.43; 179.52017; 2479.242669119
25.45; 186.15278; 2668.7381679345
26.47; 193.34219; 2865.5521754018
27.48; 201.06141; 3070.224018258
28.50; 209.12518; 3283.1044245148
29.52; 217.25838; 3504.2640779971
30.54; 225.18228; 3733.4899226944
31.56; 232.68774; 3970.3560031269
32.57; 239.67363; 4214.3334139855
33.59; 246.14477; 4464.8981729703
34.61; 252.18053; 4721.6070734097
35.63; 257.89549; 4984.133557747
36.65; 263.41427; 5252.2779156759
37.66; 268.87221; 5525.978228133
38.68; 274.43813; 5805.3444021138
39.70; 280.34005; 6090.7184713527
40.72; 286.86863; 6382.7383541851
41.74; 294.33824; 6682.3619768971
42.75; 303.00286; 6990.8058139541
43.77; 312.94677; 7309.3721217094
44.79; 323.98871; 7639.1786468584
45.81; 335.6445; 7980.8502685962
46.83; 347.18104; 8334.2655867921
47.84; 357.76636; 8698.4563050816
48.86; 366.68486; 9071.7256710055
49.88; 373.55635; 9451.9899153204
50.90; 378.48595; 9837.2722816089
51.92; 382.0855; 10226.218832132
52.93; 385.34424; 10618.482642607
53.95; 389.37589; 11014.85049442
54.97; 395.11298; 11417.058453315
55.99; 403.04171; 11827.337524578
57.01; 413.06112; 12247.815924622
58.02; 424.51148; 12679.950296226
59.04; 436.36167; 13124.14765024
60.06; 447.49308; 13579.676294063
61.08; 456.98778; 14044.870135067
62.10; 464.33196; 14517.540031643
63.11; 469.47953; 14995.449937165
64.13; 472.77272; 15476.712165355
65.15; 474.76513; 15960.002575745
66.17; 476.02122; 16444.571632864
67.19; 476.96412; 16930.100523763
68.20; 477.8149; 17416.495477492
69.22; 478.62477; 17903.714836508
70.24; 479.3648; 18391.687517866
71.26; 480.02123; 18880.328420719
72.27; 480.65193; 19369.611340015
73.29; 481.38637; 19859.641895526
74.31; 482.38238; 20350.686338482
75.33; 483.77251; 20843.145881984
76.35; 485.63389; 21337.500227133
77.36; 487.99611; 21834.259206296
78.38; 490.87589; 22333.949676985
79.40; 494.30681; 22837.132683175
80.42; 498.33079; 23344.411924865
81.44; 502.9367; 23856.379786058
82.45; 507.96313; 24373.464327996
83.47; 513.01052; 24895.686902648
84.49; 517.41867; 25422.396777139
85.51; 520.34893; 25952.089530403
86.53; 520.97235; 26482.416902846
87.54; 518.71771; 27010.449144442
88.56; 513.49888; 27533.168843175
89.58; 505.83464; 28048.086683033
90.60; 496.80171; 28553.809384853
91.62; 487.81571; 29050.384727059
92.63; 480.29551; 29539.304828726
93.65; 475.31024; 30023.150142731
94.67; 473.31889; 30504.968351051
95.69; 474.08371; 30987.565114759
96.71; 476.78138; 31472.907987518
97.72; 480.2704; 31961.802528386
98.74; 483.42336; 32453.906652498
99.76; 485.41607; 32948.039269681
100.78; 485.8867; 33442.650958785
101.80; 484.92837; 33936.287110221
102.81; 482.93815; 34427.89730959
103.83; 480.39261; 34916.916260776
104.85; 477.63926; 35403.132420855
105.87; 474.779; 35886.436955417
106.89; 471.67462; 36366.581360825
107.90; 468.07085; 36843.057291795
108.92; 463.77053; 37315.155680191
109.94; 458.7931; 37782.187254426
110.96; 453.45139; 38243.781205553
111.98; 448.31442; 38700.145940655
112.99; 444.06584; 39152.185808161
114.01; 441.305; 39601.415257646
115.03; 440.35684; 40049.679520593
116.05; 441.154; 40498.755253465
117.07; 443.2304; 40949.944671279
118.08; 445.83007; 41403.780444647
119.10; 448.0992; 41859.926099006
120.12; 449.30499; 42317.299188004
121.14; 449.01833; 42774.380475703
122.15; 447.21011; 43229.621065818
123.17; 444.23708; 43681.835241826
124.19; 440.72594; 44130.475229924
125.21; 437.39139; 44575.720790648
126.23; 434.84011; 45018.369261248
127.24; 433.41258; 45459.564566324
128.26; 433.10061; 45900.442301554
129.28; 433.55568; 46341.783278697
130.30; 434.17869; 46783.758454235
131.32; 434.2631; 47225.819552758
132.33; 433.15429; 47666.751933347
133.35; 430.38965; 48104.870025411
134.37; 425.79312; 48538.309050981
135.39; 419.51125; 48965.353396357
136.41; 411.98982; 49384.74125427
137.42; 403.89976; 49795.893785145
138.44; 396.02623; 50199.031402559
139.46; 389.13831; 50595.157411576
140.48; 383.85876; 50985.909069351
141.50; 380.55488; 51373.297510647
142.51; 379.27101; 51759.37903549
143.53; 379.71947; 52145.91707155
144.55; 381.33659; 52534.101265641
145.57; 383.39689; 52924.382751142
146.59; 385.16206; 53316.461110991
147.60; 386.02969; 53709.42267873
148.62; 385.64312; 54101.990738088
149.64; 383.93301; 54492.817974052
150.66; 381.07998; 54880.740950807
151.68; 377.41236; 55264.930447321
152.69; 373.2735; 55644.906763216
153.71; 368.90319; 56020.434288347
154.73; 364.37194; 56391.349203353
155.75; 359.58788; 56757.394152981
156.77; 354.36952; 57118.127033269
157.78; 348.5544; 57472.940370086
158.80; 342.10129; 57821.184719994
159.82; 335.14721; 58162.350118768
160.84; 327.99821; 58496.238143204
161.86; 321.05749; 58823.060815378
162.87; 314.7168; 59143.42893211
163.89; 309.24871; 59458.23076988
164.91; 304.73525; 59768.438103447
165.93; 301.05361; 60074.897685923
166.94; 297.9195; 60378.166883798
167.96; 294.97062; 60678.434249448
168.98; 291.86279; 60975.537971881
170.00; 288.35225; 61269.06812267
171.02; 284.3468; 61558.520894223
172.03; 279.92051; 61843.467893407
173.05; 275.2974; 62123.7087708
174.07; 270.8137; 62399.385426557
175.09; 266.86756; 62671.045087057
176.11; 263.86162; 62939.6448277
177.12; 262.14052; 63206.492562884
178.14; 261.92678; 63473.122724891
179.16; 263.26237; 63741.11246226
180.18; 265.96885; 64011.857274468
181.20; 269.64153; 64286.340721013
182.21; 273.68983; 64564.945152765
183.23; 277.4257; 64847.352544686
184.25; 280.1883; 65132.572143448
185.27; 281.47873; 65419.105346046
186.29; 281.07152; 65705.224025725
187.30; 279.07103; 65989.306295918
188.32; 275.89344; 66270.153914087
189.34; 272.17422; 66547.215527916
190.36; 268.62211; 66820.661239948
191.38; 265.85614; 67091.291320619
192.39; 264.26816; 67360.304908268
193.41; 263.9462; 67628.990753151
194.43; 264.67741; 67898.420937678
195.45; 266.02677; 68169.224705985
196.47; 267.46706; 68441.49462828
197.48; 268.5228; 68714.839248982
198.50; 268.88922; 68988.556871125
199.52; 268.49772; 69261.875967262
200.54; 267.5171; 69534.196826693
201.56; 266.29933; 69805.278049485
202.57; 265.29339; 70075.335272025
203.59; 264.95524; 70345.048272162
204.61; 265.67667; 70615.495658565
205.63; 267.74276; 70888.046239564
206.65; 271.31341; 71164.231587454
207.66; 276.41541; 71445.610545913
208.68; 282.93183; 71733.622937358
209.70; 290.58484; 72029.425767686
210.72; 298.92177; 72333.715226056
211.74; 307.32478; 72646.558585527
212.75; 315.0654; 72967.281569684
213.77; 321.41261; 73294.465732746
214.79; 325.78113; 73626.096863827
215.81; 327.88333; 73959.867948448
216.82; 327.83358; 74293.588386733
217.84; 326.15812; 74625.603278612
218.86; 323.68741; 74955.103091217
219.88; 321.3456; 75282.219042814
220.90; 319.89069; 75607.853956618
221.91; 319.68319; 75933.277645373
222.93; 320.56029; 76259.594182776
223.95; 321.86365; 76587.237487861
224.97; 322.62102; 76915.651767999
225.99; 321.83066; 77243.261496915
227.00; 318.76203; 77567.747490074
228.02; 313.17944; 77886.550645987
229.04; 305.42038; 78197.455409068
230.06; 296.30817; 78499.084340083
231.08; 286.93236; 78791.169098129
232.09; 278.3702; 79074.537948369
233.11; 271.43604; 79350.848123922
234.13; 266.52832; 79622.162449026
235.15; 263.60546; 79890.501429614
236.17; 262.27727; 80157.488374263
237.18; 261.96432; 80424.156751484
238.20; 262.06519; 80690.927808774
239.22; 262.08196; 80957.71593394
240.24; 261.68022; 81224.095101904
241.26; 260.68871; 81489.464964205
242.27; 259.06361; 81753.180542795
243.29; 256.84682; 82014.639517191
244.31; 254.13842; 82273.341466792
245.33; 251.08707; 82528.93726791
246.35; 247.88807; 82781.276622469
247.36; 244.7746; 83030.446604812
248.38; 241.99252; 83276.784543947
249.40; 239.76072; 83520.850610833
250.42; 238.22971; 83763.358177157
251.44; 237.45426; 84005.076366102
252.45; 237.39117; 84246.73033335
253.47; 237.9221; 84488.924760896
254.49; 238.89044; 84732.104921252
255.51; 240.13639; 84976.553401623
256.53; 241.51733; 85222.407618867
257.54; 242.91049; 85469.680011569
258.56; 244.20504; 85718.270205298
259.58; 245.29657; 85967.971523774
260.60; 246.09419; 86218.484792665
261.61; 246.54172; 86469.453623547
262.63; 246.64314; 86720.525693215
263.65; 246.47715; 86971.428799797
264.67; 246.1881; 87222.037667032
265.69; 245.95178; 87472.40596996
266.70; 245.9288; 87722.750876201
267.72; 246.22751; 87973.3998577
268.74; 246.89749; 88224.730845861
269.76; 247.96161; 88477.145069185
270.78; 249.47534; 88731.100202457
271.79; 251.58422; 88987.202081577
272.81; 254.54493; 89246.317840888
273.83; 258.68538; 89509.648395401
274.85; 264.30329; 89778.697737098
275.87; 271.53161; 90055.105203288
276.88; 280.21973; 90340.3567968
277.90; 289.88237; 90635.444540714
278.92; 299.75006; 90940.577162878
279.94; 308.9208; 91255.045210144
280.96; 316.57588; 91577.305792694
281.97; 322.19666; 91905.288087361
282.99; 325.71575; 92236.852663795
284.01; 327.55536; 92570.289888235
285.03; 328.54244; 92904.731916643
286.05; 329.72919; 93240.382007629
287.06; 332.17543; 93578.52226536
288.08; 336.75574; 93921.325078618
289.10; 344.03925; 94271.542190407
290.12; 354.26033; 94632.163923975
291.14; 367.3669; 95006.127573202
292.15; 383.11125; 95396.118296852
293.17; 401.14307; 95804.464636653
294.19; 421.074; 96233.09979409
295.21; 442.50211; 96683.547851335
296.23; 465.00284; 97156.900678914
297.24; 488.10307; 97653.768545451
298.26; 511.25628; 98174.205374226
299.28; 533.82977; 98717.621042926
300.30; 555.10768; 99282.696705319
301.32; 574.30897; 99867.318450013
302.33; 590.62067; 100468.54480584
303.35; 603.24982; 101082.6270947
304.37; 611.49823; 101705.10590806
305.39; 614.85876; 102331.00558971
306.41; 613.1198; 102955.13508745
307.42; 606.4512; 103572.47623938
308.44; 595.4372; 104178.60561801
309.46; 581.02748; 104770.06651864
310.48; 564.39733; 105344.59864254
311.49; 546.73828; 105901.15461875
312.51; 529.0296; 106439.68392284
313.53; 511.85711; 106960.73237226
314.55; 495.33934; 107464.96644184
315.57; 479.19125; 107952.76245648
316.58; 462.91142; 108423.98630852
317.60; 446.03482; 108878.03051235
318.62; 428.3673; 109314.08993897
319.64; 410.1203; 109731.57470827
320.66; 391.89669; 110130.50862865
321.67; 374.52987; 110511.76387179
322.69; 358.83099; 110877.03833411
323.71; 345.33333; 111228.57276488
324.73; 334.12567; 111568.69827732
325.75; 324.83621; 111899.36752325
326.76; 316.77563; 112221.83144326
327.78; 309.19067; 112536.57420432
328.80; 301.53975; 112843.52866184
329.82; 293.69274; 113142.49519846
330.84; 285.9827; 113433.61324299
331.85; 279.08834; 113717.71312929
332.87; 273.78444; 113996.4138728
333.89; 270.64303; 114271.91679998
334.91; 269.78547; 114546.54676915
335.93; 270.76856; 114822.17747642
336.94; 272.64373; 115099.71703317
337.96; 274.17217; 115378.81246716
338.98; 274.12932; 115657.86429068
340.00; 271.60676; 115934.34825671
341.02; 266.22319; 116205.35197406
342.03; 258.18892; 116468.17714913
343.05; 248.21531; 116720.84962324
344.07; 237.30728; 116962.41819232
345.09; 226.5078; 117192.99335602
346.11; 216.66982; 117413.55388222
347.12; 208.31335; 117625.60788344
348.14; 201.59204; 117830.81988045
349.16; 196.35712; 118030.70295094
350.18; 192.27939; 118226.4350717
351.20; 188.98012; 118418.80867648
352.21; 186.12973; 118608.28071474
353.23; 183.49414; 118795.06982883
354.25; 180.93199; 118979.25078631
355.27; 178.36397; 119160.81761275
356.28; 175.74037; 119339.71372216
357.30; 173.02645; 119515.84717877
358.32; 170.21065; 119689.11428037
359.34; 167.32573; 119859.44465568
360.36; 164.46471; 120026.86263568
361.37; 161.77527; 120191.5428804
362.39; 159.42634; 120353.83201464
363.41; 157.55494; 120514.21614414
364.43; 156.2125; 120673.23372974
365.45; 155.33319; 120831.35621524
366.46; 154.74027; 120988.87512774
367.48; 154.19276; 121145.83670048
368.50; 153.45931; 121302.05165217
369.52; 152.39503; 121457.18321467
370.54; 150.99531; 121610.88992695
371.55; 149.40816; 121762.98098829
372.57; 147.90101; 121913.53783362
373.59; 146.79335; 122062.96713232
374.61; 146.37723; 122211.9728354
375.63; 146.84992; 122361.45972065
376.64; 148.27712; 122512.39942943
377.66; 150.59311; 122665.69671919
378.68; 153.63254; 122822.0880133
379.70; 157.17989; 122982.0903627
380.72; 161.02127; 123146.00306575
381.73; 164.98651; 123313.95221034
382.75; 168.97658; 123485.96307304
383.77; 172.97648; 123662.04566098
384.79; 177.05615; 123842.28117803
385.81; 181.3603; 124026.89814056
386.82; 186.08512; 124216.32476679
387.84; 191.43851; 124411.20090878
388.86; 197.58356; 124612.33244733
389.88; 204.57212; 124820.57804063
390.90; 212.28395; 125036.6739381
391.91; 220.39268; 125261.02417948
392.93; 228.37843; 125493.50356483
393.95; 235.59616; 125733.33029081
394.97; 241.39239; 125979.05732569
395.99; 245.2443; 126228.70544124
397.00; 246.8839; 126480.02259709
398.02; 246.36947; 126730.81608689
399.04; 244.08009; 126979.27908748
400.06; 240.6318; 127224.2318795
401.07; 236.73902; 127465.2219857
402.09; 233.06246; 127702.46951163
403.11; 230.08867; 127936.68985351
404.13; 228.07434; 128168.8596869
405.15; 227.06502; 128400.00208326
406.16; 226.97204; 128631.04982365
407.18; 227.67142; 128862.8095074
408.20; 229.08397; 129096.00710224
409.22; 231.20527; 129331.36408686
410.24; 234.07653; 129569.64389261
411.25; 237.71151; 129811.62395055
412.27; 242.01305; 130057.9827948
413.29; 246.71801; 130309.13108023
414.31; 251.39966; 130565.04508364
415.33; 255.53639; 130825.17010248
416.34; 258.63127; 131088.44557228
417.36; 260.34803; 131353.46862946
418.38; 260.62108; 131618.76964679
419.40; 259.70272; 131883.13580642
420.42; 258.12791; 132145.89888192
421.43; 256.60082; 132407.10744282
422.45; 255.82967; 132667.53100827
423.47; 256.35276; 132928.48705115
424.49; 258.40244; 133191.52957948
425.51; 261.84587; 133458.07737797
426.52; 266.22208; 133729.07996646
427.54; 270.86992; 134004.81385591
428.56; 275.11723; 134284.87132861
429.58; 278.48414; 134568.35616707
430.60; 280.84884; 134854.24816406
431.61; 282.53381; 135141.85539441
432.63; 284.2918; 135431.25217539
433.65; 287.19761; 135723.60694531
434.67; 292.47593; 136021.33482622
435.69; 301.30802; 136328.05339257
436.70; 314.65844; 136648.36210853
437.72; 333.14831; 136987.49271689
438.74; 356.98042; 137350.88337617
439.76; 385.90412; 137743.71711574
440.78; 419.20224; 138170.44691089
441.79; 455.68999; 138634.31965846
442.81; 493.73359; 139136.91915199
443.83; 531.31316; 139677.77302342
444.85; 566.15879; 140254.09824038
445.87; 595.97486; 140860.77492931
446.88; 618.7363; 141490.62178215
447.90; 633.00364; 142134.9921691
448.92; 638.17731; 142784.62913151
449.94; 634.61078; 143430.63552527
450.95; 623.53242; 144065.36462402
451.97; 606.7808; 144683.04128978
452.99; 586.41884; 145279.99036739
454.01; 564.33544; 145854.45949202
455.03; 541.95009; 146406.14129762
456.04; 520.10204; 146935.58272844
457.06; 499.13988; 147443.68558754
458.08; 479.15606; 147931.44577658
459.10; 460.25966; 148399.97025352
460.12; 442.77138; 148850.69240817
461.13; 427.25963; 149285.62427311
462.15; 414.40371; 149707.46936595
463.17; 404.74035; 150119.47757686
464.19; 398.39778; 150525.02932341
465.21; 394.92675; 150927.04771323
466.22; 393.3012; 151327.41136135
467.24; 392.09784; 151726.55004269
468.26; 389.80056; 152123.35019598
469.28; 385.13595; 152515.40197495
470.30; 377.34382; 152899.52169707
471.31; 366.31795; 153272.4175608
472.33; 352.60091; 153631.35007207
473.35; 337.26156; 153974.66778828
474.37; 321.70856; 154302.15322176
475.39; 307.49285; 154615.16767016
476.40; 296.13403; 154916.61933247
477.42; 288.98377; 155210.79234157
478.44; 287.12555; 155503.07375739
479.46; 291.3091; 155799.61385032
480.48; 301.92408; 156106.95953236
481.49; 319.02012; 156431.70824629
482.51; 342.37205; 156780.2282158
483.53; 371.56869; 157158.46910891
484.55; 406.08255; 157571.84362107
485.57; 445.27035; 158025.10962577
486.58; 488.27324; 158522.15071722
487.60; 533.82976; 159065.56637911
488.62; 580.06989; 159656.05250018
489.64; 624.39888; 160291.66361742
490.66; 663.58086; 160967.16030219
491.67; 694.08362; 161673.70747695
492.69; 712.65704; 162399.16158657
493.71; 717.01977; 163129.05677373
494.73; 706.46053; 163848.20310955
495.74; 682.15457; 164542.60703043
496.76; 647.06319; 165201.28943806
497.78; 605.4053; 165817.5659045
498.80; 561.825; 166389.47951493
499.82; 520.4781; 166919.30376478
500.83; 484.28659; 167412.28662019
501.85; 454.55406; 167875.00303599
502.87; 431.01618; 168313.75891107
503.89; 412.26414; 168733.4260194
504.91; 396.37229; 169136.91590303
505.92; 381.52078; 169525.28759133
506.94; 366.43671; 169898.3043451
507.96; 350.56413; 170255.16350264
508.98; 333.97705; 170595.13773041
510.00; 317.12996; 170917.9623419
511.01; 300.57297; 171223.93265295
512.03; 284.73922; 171513.78489226
513.05; 269.85788; 171788.48856638
514.07; 255.9848; 172049.07004643
515.09; 243.0996; 172296.534944
516.10; 231.20566; 172531.89232785
517.12; 220.38653; 172756.23630334
518.14; 210.80341; 172970.82507458
519.16; 202.64807; 173177.11206575
520.18; 196.08038; 173376.71343245
521.19; 191.17767; 173571.32404582
522.21; 187.91011; 173762.60843108
523.23; 186.14167; 173952.09261413
524.25; 185.64741; 174141.0736627
525.27; 186.13839; 174330.55450939
526.28; 187.29015; 174521.20780287
527.30; 188.77607; 174713.37369381
528.32; 190.30691; 174907.09791889
529.34; 191.67341; 175102.21317457
530.36; 192.78193; 175298.45685619
531.37; 193.67036; 175495.60492683
532.39; 194.49394; 175693.59136943
533.41; 195.47986; 175892.58143473
534.43; 196.86062; 176092.977054
535.45; 198.8046; 176295.35155362
536.46; 201.36414; 176500.33155648
537.48; 204.45633; 176708.45927689
538.50; 207.88113; 176920.07330138
539.52; 211.37068; 177135.23952922
540.54; 214.65517; 177353.74922485
541.55; 217.52788; 177575.18322242
542.57; 219.89351; 177799.02533049
543.59; 221.78958; 178024.79755547
544.61; 223.37788; 178252.18660267
545.62; 224.90992; 178481.13520019
546.64; 226.6761; 178711.8816903
547.66; 228.95146; 178944.94439466
548.68; 231.95039; 179181.05987888
549.70; 235.79858; 179421.09266025
550.71; 240.52394; 179665.93564801
551.73; 246.06189; 179916.41602897
552.75; 252.26817; 180173.21414058
553.77; 258.93507; 180436.79886712
554.79; 265.81482; 180707.38687863
555.80; 272.66148; 180984.94450442
556.82; 279.30367; 181269.26358642
557.84; 285.75027; 181560.14503321
558.86; 292.31163; 181857.70566032
559.88; 299.69565; 182162.78290066
560.89; 309.02638; 182477.35842499
561.91; 321.74158; 182804.87747019
562.93; 339.35973; 183150.33103415
563.95; 363.15732; 183520.00951763
564.97; 393.84386; 183920.92557181
565.98; 431.34328; 184360.01441303
567.00; 474.76988; 184843.30966766
568.02; 522.62662; 185375.32101464
569.04; 573.17249; 185958.78587964
570.06; 624.83735; 186594.84334377
571.07; 676.53616; 187283.52795903
572.09; 727.76717; 188024.36353741
573.11; 778.4599; 188816.80212483
574.13; 828.63739; 189660.31923014
575.15; 878.03332; 190554.11925639
576.16; 925.82426; 191496.56840028
577.18; 970.59339; 192484.59059051
578.20; 1010.5526; 193513.28956417
579.22; 1043.9549; 194575.99060414
580.24; 1069.5666; 195664.76329836
581.25; 1087.066; 196771.34960856
582.27; 1097.279; 197888.33228387
583.29; 1102.2356; 199010.36055549
584.31; 1105.0842; 200135.2885927
585.33; 1109.9176; 201265.13683959
