#Wavenumber (cm^-1); Spectrum (K*cm*km*mol^-1); Integral (K*km*mol^-1)
0.00; 0.24186751; 0.24621069278634
1.02; 0.25417929; 0.50495424033898
2.04; 0.29052417; 0.80069531155168
3.05; 0.34915895; 1.1561240571383
4.07; 0.42729102; 1.5910878791692
5.09; 0.52129853; 2.1217472843543
6.11; 0.62709297; 2.7601008685433
7.13; 0.74059728; 3.5139969441707
8.14; 0.85824757; 4.3876559376065
9.16; 0.97738716; 5.3825938922623
10.18; 1.0964354; 6.498717781198
11.20; 1.2147844; 7.7353158909613
12.22; 1.3324793; 9.0917223551192
13.23; 1.4498221; 10.567578668943
14.25; 1.5670693; 12.162787615062
15.27; 1.6843455; 13.877378690392
16.29; 1.8017858; 15.711518886222
17.31; 1.9198044; 17.665796893216
18.32; 2.0393117; 19.741728155926
19.34; 2.1617118; 21.942257470975
20.36; 2.2886072; 24.271960797888
21.38; 2.4212755; 26.736714734477
22.40; 2.5601069; 29.342793118511
23.41; 2.7042362; 32.095588903599
24.43; 2.8515488; 34.998342523208
25.45; 2.999104; 38.051300928385
26.47; 3.1438524; 41.251606976003
27.48; 3.2834035; 44.593970025271
28.50; 3.4165708; 48.071891712361
29.52; 3.5435029; 51.67902477773
30.54; 3.6653607; 55.410203808062
31.56; 3.7836718; 59.26181842616
32.57; 3.8996069; 63.231449925159
33.59; 4.0134493; 67.316968129587
34.61; 4.1244592; 71.515489634393
35.63; 4.2311981; 75.8226667128
36.65; 4.3322333; 80.232693290433
37.66; 4.4270236; 84.739212254361
38.68; 4.5167282; 89.337046629652
39.70; 4.6046887; 94.024421061876
40.72; 4.6963919; 98.805145324239
41.74; 4.7988227; 103.69013979754
42.75; 4.9192488; 108.69772277437
43.77; 5.0636165; 113.85226586212
44.79; 5.2348812; 119.18114901994
45.81; 5.4316821; 124.71036702943
46.83; 5.6477829; 130.45956628301
47.84; 5.8725823; 136.43760160931
48.86; 6.0927638; 142.63977227499
49.88; 6.2948382; 149.04764593102
50.90; 6.4680316; 155.63182299403
51.92; 6.6067958; 162.35725601181
52.93; 6.7122416; 169.19002831755
53.95; 6.7920497; 176.10404186741
54.97; 6.8588232; 183.08602787302
55.99; 6.9272844; 190.13770444923
57.01; 7.0110388; 197.27463936578
58.02; 7.1197126; 204.52219954155
59.04; 7.257113; 211.90962745372
60.06; 7.4207198; 219.46360002383
61.08; 7.6024434; 227.20255934445
62.10; 7.7903092; 235.13275796949
63.11; 7.9706276; 243.24651295996
64.13; 8.1302687; 251.52277563358
65.15; 8.2587922; 259.92986975693
66.17; 8.3502758; 268.4300901526
67.19; 8.4046708; 276.98568230317
68.20; 8.4284308; 285.56546116837
69.22; 8.4340861; 294.15099684928
70.24; 8.4385169; 302.74104288828
71.26; 8.459965; 311.3529222172
72.27; 8.5142645; 320.02007610201
73.29; 8.6112053; 328.7859115196
74.31; 8.7521437; 337.69521613376
75.33; 8.9297748; 346.78534153666
76.35; 9.1303703; 356.07966447182
77.36; 9.3379383; 365.58528271673
78.38; 9.5389994; 375.29557251395
79.40; 9.7263276; 385.19655426807
80.42; 9.9002799; 395.27461195105
81.44; 10.067187; 405.52257359831
82.45; 10.235399; 415.94176810634
83.47; 10.410549; 426.53925811002
84.49; 10.591966; 437.32142261475
85.51; 10.771788; 448.28663839006
86.53; 10.93728; 459.42031728186
87.54; 11.075538; 470.69473694334
88.56; 11.178761; 482.07423290101
89.58; 11.247915; 493.52412494528
90.60; 11.293202; 505.02011767986
91.62; 11.330945; 516.55453119208
92.63; 11.377939; 528.13678224523
93.65; 11.445362; 539.78766727031
94.67; 11.534586; 551.52937845296
95.69; 11.636551; 563.37488526928
96.71; 11.735057; 575.32066678366
97.72; 11.81285; 587.345637869
98.74; 11.858326; 599.41690174752
99.76; 11.870448; 611.50050605791
100.78; 11.860101; 623.57357675583
101.80; 11.847365; 635.63368356672
102.81; 11.855623; 647.70219607472
103.83; 11.904394; 659.82035535128
104.85; 12.00321; 672.03910510613
105.87; 12.148375; 684.40562637152
106.89; 12.323516; 696.95043359935
107.90; 12.503661; 709.67862062127
108.92; 12.661596; 722.56757920258
109.94; 12.774732; 735.57170540291
110.96; 12.830696; 748.63280022088
111.98; 12.830326; 761.69351873184
112.99; 12.787457; 774.71059841621
114.01; 12.725656; 787.6647671785
115.03; 12.672757; 800.56508745727
116.05; 12.654491; 813.44681334359
117.07; 12.688676; 826.36333798361
118.08; 12.781328; 839.37417850191
119.10; 12.925605; 852.53188614716
120.12; 13.103853; 865.87104256786
121.14; 13.292268; 879.40199738322
122.15; 13.466969; 893.11079096405
123.17; 13.609886; 906.96506802142
124.19; 13.712851; 920.92415852396
125.21; 13.778778; 934.95036029159
126.23; 13.819649; 949.01816699684
127.24; 13.851958; 963.11886215792
128.26; 13.89105; 977.25935204267
129.28; 13.946108; 991.45588781553
130.30; 14.017274; 1005.7248679944
131.32; 14.095752; 1020.0737352906
132.33; 14.166726; 1034.494850886
133.35; 14.214134; 1048.9642260403
134.37; 14.225796; 1063.4454728683
135.39; 14.197385; 1077.8977983395
136.41; 14.134163; 1092.2857664467
137.42; 14.050109; 1106.5881709419
138.44; 13.964793; 1120.8037280827
139.46; 13.898922; 1134.9522308371
140.48; 13.869707; 1149.0709936127
141.50; 13.887174; 1163.207537694
142.51; 13.952199; 1177.4102741647
143.53; 14.056612; 1191.7192981558
144.55; 14.185268; 1206.1592891387
145.57; 14.319549; 1220.7359724127
146.59; 14.441456; 1235.436751429
147.60; 14.537335; 1250.2351311251
148.62; 14.600315; 1265.0976217803
149.64; 14.630819; 1279.9911645652
150.66; 14.634989; 1294.8889522788
151.68; 14.621431; 1309.7729378615
152.69; 14.597222; 1324.6322801728
153.71; 14.564432; 1339.4582431438
154.73; 14.518328; 1354.2372741276
155.75; 14.448025; 1368.9447403197
156.77; 14.339571; 1383.5418045179
157.78; 14.180661; 1397.977105034
158.80; 13.965593; 1412.1934756793
159.82; 13.698867; 1426.1383314466
160.84; 13.396187; 1439.7750717267
161.86; 13.082353; 1453.0923430486
162.87; 12.786495; 1466.1084435724
163.89; 12.535872; 1478.8694199648
164.91; 12.34993; 1491.4411161727
165.93; 12.236223; 1503.8970635691
166.94; 12.189232; 1516.3051760474
167.96; 12.192336; 1528.7164476442
168.98; 12.222306; 1541.1582275961
170.00; 12.255109; 1553.6334001669
171.02; 12.271549; 1566.1253073192
172.03; 12.26144; 1578.6069244447
173.05; 12.225483; 1591.0519386501
174.07; 12.174572; 1603.4451272461
175.09; 12.126877; 1615.7897642873
176.11; 12.103441; 1628.11054471
177.12; 12.123261; 1640.451501302
178.14; 12.198841; 1652.8693952476
179.16; 12.333063; 1665.423921666
180.18; 12.517967; 1678.1666717389
181.20; 12.735694; 1691.131058881
182.21; 12.961501; 1704.3253072054
183.23; 13.16834; 1717.7301095697
184.25; 13.332216; 1731.3017301832
185.27; 13.437238; 1744.9802582265
186.29; 13.479288; 1758.701592207
187.30; 13.467363; 1772.4107861118
188.32; 13.422064; 1786.0738684166
189.34; 13.371375; 1799.6853506985
190.36; 13.344468; 1813.2694437819
191.38; 13.364949; 1826.8743854125
192.39; 13.44514; 1840.5609572488
193.41; 13.582939; 1854.3878028118
194.43; 13.762179; 1868.3971070274
195.45; 13.956519; 1882.6042412603
196.47; 14.135962; 1896.9940408774
197.48; 14.274328; 1911.5246911871
198.50; 14.355756; 1926.1382309216
199.52; 14.378602; 1940.775027114
200.54; 14.355913; 1955.3887266119
201.56; 14.312634; 1969.9583702936
202.57; 14.280623; 1984.4954286947
203.59; 14.29295; 1999.0450349019
204.61; 14.378841; 2013.6820743396
205.63; 14.560047; 2028.5035734219
206.65; 14.848644; 2043.6188518376
207.66; 15.245767; 2059.1383845648
208.68; 15.740707; 2075.1617453595
209.70; 16.310254; 2091.7648805231
210.72; 16.918851; 2108.9875405534
211.74; 17.520639; 2126.8227951252
212.75; 18.064409; 2145.2115836518
213.77; 18.501639; 2164.045453978
214.79; 18.796485; 2183.1794649078
215.81; 18.935184; 2202.4546647854
216.82; 18.931657; 2221.7262744225
217.84; 18.826538; 2240.8908776444
218.86; 18.678535; 2259.9048197745
219.88; 18.549531; 2278.7874417197
220.90; 18.487252; 2297.6066663028
221.91; 18.510694; 2316.4497539728
222.93; 18.603211; 2335.3870203849
223.95; 18.716045; 2354.4391466843
224.97; 18.781819; 2373.5582280877
225.99; 18.734208; 2392.6288434874
227.00; 18.527815; 2411.4893596201
228.02; 18.152108; 2429.9674218145
229.04; 17.635167; 2447.9192604389
230.06; 17.036337; 2465.2615159427
231.08; 16.430444; 2481.9869990655
232.09; 15.888796; 2498.1611080852
233.11; 15.462828; 2513.9015999158
234.13; 15.174909; 2529.3490023882
235.15; 15.018061; 2544.6367401375
236.17; 14.96329; 2559.8687237901
237.18; 14.971007; 2575.1085631281
238.20; 15.002317; 2590.3802746875
239.22; 15.026871; 2605.6769813951
240.24; 15.025889; 2620.9726877044
241.26; 14.991007; 2636.2328855072
242.27; 14.920969; 2651.4217885725
243.29; 14.818381; 2666.5062613935
244.31; 14.687963; 2681.4579734167
245.33; 14.536486; 2696.2554893183
246.35; 14.373508; 2710.887100561
247.36; 14.211611; 2725.3539069593
248.38; 14.065286; 2739.6717612704
249.40; 13.948454; 2753.8706852204
250.42; 13.871454; 2767.9912267789
251.44; 13.838747; 2782.0784737252
252.45; 13.848264; 2796.1754092011
253.47; 13.892628; 2810.3175053127
254.49; 13.961615; 2824.5298269018
255.51; 14.044785; 2838.8268122044
256.53; 14.133284; 2853.2138852447
257.54; 14.220385; 2867.6896235894
258.56; 14.301077; 2882.2475024678
259.58; 14.371439; 2896.877007713
260.60; 14.428553; 2911.5646521411
261.61; 14.471168; 2926.2956770381
262.63; 14.500745; 2941.0568094718
263.65; 14.522038; 2955.8396179958
264.67; 14.54253; 2970.6432859401
265.69; 14.570591; 2985.4755184655
266.70; 14.613098; 3000.3510215144
267.72; 14.673758; 3015.2882743226
268.74; 14.75332; 3030.3065170539
269.76; 14.852056; 3045.4252688575
270.78; 14.973712; 3060.6678619703
271.79; 15.12905; 3076.0685822847
272.81; 15.336804; 3091.6807874241
273.83; 15.620587; 3107.581871134
274.85; 16.001821; 3123.8710345372
275.87; 16.49063; 3140.6577844559
276.88; 17.077925; 3158.0423751178
277.90; 17.732065; 3176.0928521611
278.92; 18.402255; 3194.8255535768
279.94; 19.028606; 3214.1958534541
280.96; 19.556388; 3234.1034130495
281.97; 19.950338; 3254.4119960424
282.99; 20.204654; 3274.9794614705
284.01; 20.345639; 3295.6904440898
285.03; 20.426314; 3316.4835504094
286.05; 20.514879; 3337.3668123402
287.06; 20.680695; 3358.4188675485
288.08; 20.981843; 3379.777478345
289.10; 21.457331; 3401.6201153421
290.12; 22.125073; 3424.1424848156
291.14; 22.984742; 3447.539960513
292.15; 24.023221; 3471.9945623672
293.17; 25.220065; 3497.6675003385
294.19; 26.551122; 3524.6953968008
295.21; 27.989665; 3553.1876678063
296.23; 29.505616; 3583.2231117744
297.24; 31.06405; 3614.8449740134
298.26; 32.624135; 3648.0549358721
299.28; 34.139169; 3682.8071365389
300.30; 35.557752; 3719.0033935356
301.32; 36.82585; 3756.490519739
302.33; 37.889535; 3795.0604314445
303.35; 38.69849; 3834.4538241773
304.37; 39.210521; 3874.3684420793
305.39; 39.397085; 3914.4729745783
306.41; 39.249167; 3954.4269330094
307.42; 38.781988; 3993.9053231987
308.44; 38.036525; 4032.6248646051
309.46; 37.076067; 4070.3667014008
310.48; 35.977222; 4106.9899604469
311.49; 34.816651; 4142.4318084966
312.51; 33.656667; 4176.6928426493
313.53; 32.533844; 4209.8108923468
314.55; 31.454475; 4241.8301907587
315.57; 30.398812; 4272.7748698758
316.58; 29.333256; 4302.6348583256
317.60; 28.2268; 4331.3685223329
318.62; 27.066346; 4358.9208948294
319.64; 25.865593; 4385.2509522577
320.66; 24.664238; 4410.3580825102
321.67; 23.517562; 4434.2979455649
322.69; 22.479866; 4457.1814792559
323.71; 21.587557; 4479.156680986
324.73; 20.847899; 4500.378942973
325.75; 20.237575; 4520.9799209016
326.76; 19.711739; 4541.0456209502
327.78; 19.220525; 4560.6112864608
328.80; 18.727242; 4579.6748102245
329.82; 18.221827; 4598.2238436788
330.84; 17.724708; 4616.2668316319
331.85; 17.279498; 4633.8566154004
332.87; 16.936835; 4651.0975825335
333.89; 16.73471; 4668.1327949827
334.91; 16.681881; 4685.1142304906
335.93; 16.749948; 4702.164955251
336.94; 16.876819; 4719.3448289016
337.96; 16.980615; 4736.6303624627
338.98; 16.979753; 4753.9150180404
340.00; 16.813127; 4771.0300560531
341.02; 16.454514; 4787.7800414906
342.03; 15.917325; 4803.9831918857
343.05; 15.248973; 4819.5059886755
344.07; 14.517221; 4834.2838935081
345.09; 13.793033; 4848.3246056495
346.11; 13.134979; 4861.6954479148
347.12; 12.579199; 4874.5005299438
348.14; 12.136715; 4886.8551816385
349.16; 11.797467; 4898.8644937748
350.18; 11.538529; 4910.6102183335
351.20; 11.333179; 4922.1469054702
352.21; 11.157966; 4933.5052334566
353.23; 10.996235; 4944.6989263005
354.25; 10.838185; 4955.7317311101
355.27; 10.678787; 4966.6022759745
356.28; 10.515357; 4977.306455194
357.30; 10.346193; 4987.8384336094
358.32; 10.170785; 4998.1918539688
359.34; 9.9910289; 5008.3622902446
360.36; 9.8123235; 5018.3508121742
361.37; 9.643397; 5028.1673742209
362.39; 9.4943699; 5037.8322330806
363.41; 9.3734786; 5047.3740298502
364.43; 9.2836642; 5056.8243993571
365.45; 9.2204993; 5066.2104697661
366.46; 9.1725482; 5075.5477280429
367.48; 9.1243626; 5084.8359354384
368.50; 9.0612878; 5094.059935456
369.52; 8.9745022; 5103.1955914463
370.54; 8.8645521; 5112.2193230012
371.55; 8.7421432; 5121.1184475586
372.57; 8.6258995; 5129.899241062
373.59; 8.5378383; 5138.5903920357
374.61; 8.4980303; 5147.2410202148
375.63; 8.5200783; 5155.9140923153
376.64; 8.6086307; 5164.6773068959
377.66; 8.7593679; 5173.5939653927
378.68; 8.9610855; 5182.7159637154
379.70; 9.1989584; 5192.0801064563
380.72; 9.4579569; 5201.7078984995
381.73; 9.7256517; 5211.6081922186
382.75; 9.9940844; 5221.781738915
383.77; 10.260744; 5232.2267336868
384.79; 10.52881; 5242.9446078572
385.81; 10.806701; 5253.9453628431
386.82; 11.106754; 5265.2515588739
387.84; 11.442765; 5276.8998000071
388.86; 11.826324; 5288.9384870911
389.88; 12.262358; 5301.4210384891
390.90; 12.744917; 5314.3948137887
391.91; 13.254598; 5327.8874226394
392.93; 13.758989; 5341.8934792528
393.95; 14.216808; 5356.3655761144
394.97; 14.585354; 5371.2128370156
395.99; 14.829644; 5386.3087750969
397.00; 14.930815; 5401.5077004452
398.02; 14.891251; 5416.6663517499
399.04; 14.734714; 5431.6656546772
400.06; 14.50117; 5446.4272203824
401.07; 14.237709; 5460.9205935361
402.09; 13.988174; 5475.1599507074
403.11; 13.784588; 5489.1920662648
404.13; 13.642804; 5503.0798523016
405.15; 13.56338; 5516.8867876106
406.16; 13.536871; 5530.6667385977
407.18; 13.551272; 5544.4613484641
408.20; 13.598641; 5558.3041783647
409.22; 13.678413; 5572.228212968
410.24; 13.796179; 5586.2721278611
411.25; 13.958524; 5600.4813031599
412.27; 14.16607; 5614.9017513488
413.29; 14.407655; 5629.5681225683
414.31; 14.658327; 5644.4896672241
415.33; 14.88255; 5659.6394607595
416.34; 15.042177; 5674.9517476348
417.36; 15.106979; 5690.3299999602
418.38; 15.064393; 5705.6649015001
419.40; 14.925151; 5720.8580616588
420.42; 14.722557; 5735.8449892502
421.43; 14.505079; 5750.6105333076
422.45; 14.324087; 5765.1918357937
423.47; 14.220161; 5779.667345939
424.49; 14.212014; 5794.1345628883
425.51; 14.29142; 5808.6826114262
426.52; 14.42575; 5823.3674028805
427.54; 14.56744; 5838.1964279939
428.56; 14.66755; 5853.1273605447
429.58; 14.689383; 5868.0805186751
430.60; 14.618143; 5882.9611577698
431.61; 14.463975; 5897.6848599306
432.63; 14.257895; 5912.1987813595
433.65; 14.042363; 5926.4933012877
434.67; 13.859799; 5940.6019784742
435.69; 13.742678; 5954.59143166
436.70; 13.707938; 5968.5455209073
437.72; 13.756596; 5982.5491416609
438.74; 13.877583; 5996.6759220535
439.76; 14.053497; 6010.9817753375
440.78; 14.265777; 6025.503720237
441.79; 14.497693; 6040.2617458635
442.81; 14.73503; 6055.2613701031
443.83; 14.965659; 6070.4957649712
444.85; 15.17972; 6085.9480645346
445.87; 15.371534; 6101.5956223553
446.88; 15.542993; 6117.4177185323
447.90; 15.706673; 6133.4064343505
448.92; 15.886172; 6149.5778718497
449.94; 16.111729; 6165.9789170079
450.95; 16.411007; 6182.6846139264
451.97; 16.79729; 6199.7835303682
452.99; 17.259307; 6217.3527600525
454.01; 17.757284; 6235.4289090922
455.03; 18.228333; 6253.9845655328
456.04; 18.601141; 6272.9197240333
457.06; 18.81632; 6292.0739256278
458.08; 18.846094; 6311.2584357625
459.10; 18.706448; 6330.3007925953
460.12; 18.456879; 6349.0890989283
461.13; 18.186812; 6367.6024888301
462.15; 17.992257; 6385.917830359
463.17; 17.949638; 6404.189786965
464.19; 18.094714; 6422.609424537
465.21; 18.412781; 6441.3528407363
466.22; 18.842557; 6460.5337507583
467.24; 19.29184; 6480.1720113445
468.26; 19.659705; 6500.1847423279
469.28; 19.858804; 6520.4001478034
470.30; 19.832374; 6540.5886490693
471.31; 19.563129; 6560.5030697352
472.33; 19.074072; 6579.9196519276
473.35; 18.423283; 6598.6737585159
474.37; 17.695282; 6616.6867924182
475.39; 16.99102; 6633.9829172387
476.40; 16.417423; 6650.6951455704
477.42; 16.07684; 6667.0606745774
478.44; 16.056824; 6683.4058287243
479.46; 16.421523; 6700.122230197
480.48; 17.206532; 6717.6377373541
481.49; 18.418874; 6736.3873559666
482.51; 20.042243; 6756.7894944878
483.53; 22.045439; 6779.2307999508
484.55; 24.389903; 6804.0586691923
485.57; 27.031847; 6831.5759228609
486.58; 29.916199; 6862.0293225526
487.60; 32.963324; 6895.5845641459
488.62; 36.053695; 6932.2856701643
489.64; 39.01862; 6972.0049420219
490.66; 41.644983; 7014.3977377232
491.67; 43.698235; 7058.8806556421
492.69; 44.961523; 7104.6495461466
493.71; 45.282074; 7150.7447433215
494.73; 44.611542; 7196.1573677395
495.74; 43.026952; 7239.956947889
496.76; 40.723666; 7281.4118823214
497.78; 37.980044; 7320.0739279388
498.80; 35.10233; 7355.806585069
499.82; 32.364599; 7388.7523506346
500.83; 29.960047; 7419.250386054
501.85; 27.975999; 7447.7287457691
502.87; 26.397232; 7474.5999888286
503.89; 25.133402; 7500.1847078156
504.91; 24.059624; 7524.6763673121
505.92; 23.056758; 7548.1471516405
506.94; 22.040121; 7570.5830442196
507.96; 20.970934; 7591.9305503588
508.98; 19.851333; 7612.1383506359
510.00; 18.708937; 7631.1832410846
511.01; 17.578966; 7649.0778700445
512.03; 16.490709; 7665.8647003015
513.05; 15.461732; 7681.6040764226
514.07; 14.499353; 7696.3637920066
515.09; 13.606173; 7710.2142894527
516.10; 12.785718; 7723.2295986732
517.12; 12.045309; 7735.4912031861
518.14; 11.395359; 7747.0911870587
519.16; 10.84616; 7758.132109916
520.18; 10.404167; 7768.7231028155
521.19; 10.069571; 7778.9734919844
522.21; 9.835928; 7788.9860422768
523.23; 9.6914815; 7798.8515521995
524.25; 9.6211887; 7808.6455070988
525.27; 9.6084724; 7818.4265173377
526.28; 9.6363051; 7828.235860131
527.30; 9.6878745; 7838.0976983282
528.32; 9.7474104; 7848.0201414972
529.34; 9.8015957; 7857.9977429579
530.36; 9.8414583; 7868.015922806
531.37; 9.8640923; 7878.0571430846
532.39; 9.8733178; 7888.1077545277
533.41; 9.8786245; 7898.1637680141
534.43; 9.8923661; 7908.233769834
535.45; 9.9258924; 7918.337899931
536.46; 9.9857991; 7928.503012474
537.48; 10.071519; 7938.7553840483
538.50; 10.175062; 7949.1131584286
539.52; 10.283021; 7959.5808305641
540.54; 10.380238; 7970.1474650727
541.55; 10.454067; 7980.789254434
542.57; 10.498051; 7991.4758175423
543.59; 10.514058; 8002.1786744863
544.61; 10.512396; 8012.8798400899
545.62; 10.509959; 8023.5785243205
546.64; 10.52688; 8034.2944341144
547.66; 10.582505; 8045.0669672568
548.68; 10.691516; 8055.9504687916
549.70; 10.860995; 8067.0064933547
550.71; 11.08893; 8078.2945458531
551.73; 11.364386; 8089.8630008261
552.75; 11.669312; 8101.7418572204
553.77; 11.981752; 8113.9387639597
554.79; 12.280179; 8126.4394561496
555.80; 12.548627; 8139.2134166577
556.82; 12.782218; 8152.2251634017
557.84; 12.992446; 8165.4509126916
558.86; 13.211202; 8178.8993467082
559.88; 13.492211; 8192.6338349287
560.89; 13.908424; 8206.7920099985
561.91; 14.544451; 8221.5976332331
562.93; 15.484186; 8237.3598660699
563.95; 16.795405; 8254.456863859
564.97; 18.514664; 8273.3039927395
565.98; 20.636659; 8294.3112212274
567.00; 23.111816; 8317.8380521138
568.02; 25.853939; 8344.1562468658
569.04; 28.756833; 8373.4294618
570.06; 31.715638; 8405.7146127826
571.07; 34.646597; 8440.983353519
572.09; 37.498799; 8479.1555127389
573.11; 40.253696; 8520.1320383553
574.13; 42.912138; 8563.8147433448
575.15; 45.473126; 8610.1044237816
576.16; 47.911799; 8658.8765673129
577.18; 50.16501; 8709.9423830198
578.20; 52.13076; 8763.0092466522
579.22; 53.683218; 8817.6564462962
580.24; 54.699758; 8873.338439516
581.25; 55.092013; 8929.4197315412
582.27; 54.831285; 8985.2356134721
583.29; 53.960147; 9040.1647149963
584.31; 52.586478; 9093.6954804155
