#Wavenumber (cm^-1); Spectrum (K*cm*km*mol^-1); Integral (K*km*mol^-1)
0.00; 1.4514137; 1.4774765213769
1.02; 1.5188232; 3.0235730141845
2.04; 1.7145447; 4.7689054846804
3.05; 2.020921; 6.8261158953818
4.07; 2.4139912; 9.2834548061943
5.09; 2.8694046; 12.204384883098
6.11; 3.3671654; 15.63201391004
7.13; 3.8936119; 19.595542824252
8.14; 4.4403516; 24.115629174979
9.16; 5.0012558; 29.206691756264
10.18; 5.5694537; 34.876155322954
11.20; 6.1361748; 41.122516474681
12.22; 6.6923232; 47.935012703482
13.23; 7.2322711; 55.297152611889
14.25; 7.7581498; 63.194614306052
15.27; 8.282449; 71.625789977626
16.29; 8.8272203; 80.611519369499
17.31; 9.419429; 90.200091665322
18.32; 10.08351; 100.46466926827
19.34; 10.833353; 111.49255557662
20.36; 11.666353; 123.36839989451
21.38; 12.561619; 136.15558629162
22.40; 13.483279; 149.88098215753
23.41; 14.3883; 164.52765100369
24.43; 15.236994; 180.03825309662
25.45; 16.003569; 196.32919608799
26.47; 16.684037; 213.31282594075
27.48; 17.299237; 230.92270263994
28.50; 17.891806; 249.13578870535
29.52; 18.517223; 267.98552270787
30.54; 19.230541; 287.5613836314
31.56; 20.071729; 307.99353732506
32.57; 21.053415; 329.42500490308
33.59; 22.154799; 351.97763399419
34.61; 23.324382; 375.72084857032
35.63; 24.491952; 400.65259912617
36.65; 25.587431; 426.69949936177
37.66; 26.56159; 453.73805146305
38.68; 27.402267; 481.63237715093
39.70; 28.14031; 510.2779989251
40.72; 28.842185; 539.63809829324
41.74; 29.590321; 569.75976780945
42.75; 30.45649; 600.7631602729
43.77; 31.476266; 632.80464091754
44.79; 32.632809; 666.02343231249
45.81; 33.855573; 700.4869444427
46.83; 35.034936; 736.15099759948
47.84; 36.048791; 772.84711171864
48.86; 36.79357; 810.30137858296
49.88; 37.21121; 848.18078469283
50.90; 37.30532; 886.15599049602
51.92; 37.143381; 923.96634927614
52.93; 36.845706; 961.47368761845
53.95; 36.564694; 998.69496871592
54.97; 36.458976; 1035.8086329438
55.99; 36.666595; 1073.1336446802
57.01; 37.280429; 1111.0835129776
58.02; 38.328468; 1150.1002395761
59.04; 39.761885; 1190.576122951
60.06; 41.454442; 1232.7749559022
61.08; 43.216605; 1276.7675950195
62.10; 44.825731; 1322.3982553286
63.11; 46.069524; 1369.2950423657
64.13; 46.794737; 1416.9300650189
65.15; 46.948866; 1464.7219844451
66.17; 46.601599; 1512.1604011233
67.19; 45.936555; 1558.9218317699
68.20; 45.211835; 1604.9455284972
69.22; 44.697819; 1650.4459794444
70.24; 44.608884; 1695.8558982054
71.26; 45.04889; 1741.7137240013
72.27; 45.986769; 1788.5262707873
73.29; 47.269161; 1836.644236481
74.31; 48.665086; 1886.1831941756
75.33; 49.927579; 1937.0073153439
76.35; 50.852679; 1988.773148429
77.36; 51.318932; 2041.0136068133
78.38; 51.299082; 2093.2338583466
79.40; 50.846373; 2144.9932720517
80.42; 50.066374; 2195.9586807981
81.44; 49.088184; 2245.9283338192
82.45; 48.04556; 2294.8366401423
83.47; 47.070919; 2342.7528044072
84.49; 46.297135; 2389.8812897608
85.51; 45.857461; 2436.5622061169
86.53; 45.87493; 2483.26090495
87.54; 46.43863; 2530.5334268649
88.56; 47.572508; 2578.9601866824
89.58; 49.208721; 2629.0525416913
90.60; 51.178996; 2681.1505515009
91.62; 53.232719; 2735.3391620681
92.63; 55.081525; 2791.4097777292
93.65; 56.460291; 2848.8839176307
94.67; 57.187776; 2907.0986061365
95.69; 57.209332; 2965.335237293
96.71; 56.609328; 3022.9610904688
97.72; 55.590226; 3079.5495413822
98.74; 54.425003; 3134.9518458389
99.76; 53.396571; 3189.3072511258
100.78; 52.739873; 3242.9941655118
101.80; 52.599577; 3296.5382650761
102.81; 53.010418; 3350.5005826702
103.83; 53.900714; 3405.3691836584
104.85; 55.114651; 3461.4735197008
105.87; 56.446379; 3518.9334977783
106.89; 57.678748; 3577.6479740438
107.90; 58.620407; 3637.3210190374
108.92; 59.136197; 3697.5191156198
109.94; 59.166669; 3757.7482314006
110.96; 58.733632; 3817.5365345058
111.98; 57.930332; 3876.5071125592
112.99; 56.897675; 3934.4264900663
114.01; 55.791388; 3991.2197158358
115.03; 54.748029; 4046.9508471378
116.05; 53.858883; 4101.7768658234
117.07; 53.159052; 4155.890486847
118.08; 52.634477; 4209.4701129619
119.10; 52.24363; 4262.6518740779
120.12; 51.945368; 4315.5300175593
121.14; 51.722052; 4368.1808343731
122.15; 51.588753; 4420.6959585882
123.17; 51.584739; 4473.2069967737
124.19; 51.750525; 4525.8867982585
125.21; 52.099894; 4578.9222420768
126.23; 52.598897; 4632.4656490918
127.24; 53.161809; 4686.5820767583
128.26; 53.66791; 4741.2136937142
129.28; 53.99502; 4796.178293976
130.30; 54.058942; 4851.207963886
131.32; 53.84493; 4906.0197790532
132.33; 53.41924; 4960.3982605911
133.35; 52.915178; 5014.2636280938
134.37; 52.496577; 5067.702878594
135.39; 52.309394; 5120.9515848092
136.41; 52.43632; 5174.3294955369
137.42; 52.868667; 5228.1475174924
138.44; 53.504425; 5282.6127138042
139.46; 54.173197; 5337.7586907133
140.48; 54.680479; 5393.4210585692
141.50; 54.858029; 5449.2641646807
142.51; 54.605678; 5504.8503885002
143.53; 53.913124; 5559.7316223914
144.55; 52.856792; 5613.5375554641
145.57; 51.574512; 5666.0381830873
146.59; 50.227106; 5717.1672097105
147.60; 48.959025; 5767.00538446
148.62; 47.869263; 5815.7342285343
149.64; 46.999408; 5863.577597517
150.66; 46.339568; 5910.7492781926
151.68; 45.847179; 5957.4197281598
152.69; 45.470186; 6003.7064150072
153.71; 45.165854; 6049.6833056875
154.73; 44.909296; 6095.3990309666
155.75; 44.690466; 6140.8919964495
156.77; 44.503154; 6186.1942871503
157.78; 44.332551; 6231.3229107804
158.80; 44.14829; 6276.2639653234
159.82; 43.907479; 6320.9598840469
160.84; 43.567945; 6365.3101716822
161.86; 43.107536; 6409.191782671
162.87; 42.542252; 6452.4979591166
163.89; 41.935547; 6495.1865360628
164.91; 41.393432; 6537.323264033
165.93; 41.044403; 6579.1046956203
166.94; 41.008235; 6620.8493092577
167.96; 41.361784; 6662.9538205103
168.98; 42.111708; 6705.8217223706
170.00; 43.182857; 6749.7800077615
171.02; 44.427214; 6795.0049949497
172.03; 45.652702; 6841.4774759844
173.05; 46.66544; 6888.9808798585
174.07; 47.314789; 6937.1452933614
175.09; 47.529079; 6985.5278445165
176.11; 47.33179; 7033.709563911
177.12; 46.832978; 7081.3835142549
178.14; 46.197519; 7128.4105950884
179.16; 45.598567; 7174.8279683658
180.18; 45.169352; 7220.8084196254
181.20; 44.967536; 7266.5834311633
182.21; 44.963081; 7312.353907753
183.23; 45.053716; 7358.216646971
184.25; 45.103458; 7404.1300212102
185.27; 44.99197; 7449.9299055811
186.29; 44.658459; 7495.3902897603
187.30; 44.124949; 7540.3075834799
188.32; 43.490164; 7584.5786932848
189.34; 42.895024; 7628.2439769782
190.36; 42.47078; 7671.4773985714
191.38; 42.287519; 7714.5242682377
192.39; 42.321649; 7757.6058808631
193.41; 42.45527; 7800.8235133004
194.43; 42.509775; 7844.0966299019
195.45; 42.304089; 7887.1603668259
196.47; 41.718761; 7929.6282657217
197.48; 40.744188; 7971.1040910013
198.50; 39.49569; 8011.3089994142
199.52; 38.188838; 8050.1835890483
200.54; 37.081606; 8087.9310637556
201.56; 36.401179; 8124.9858927664
202.57; 36.278568; 8161.9159094084
203.59; 36.71172; 8199.2868556814
204.61; 37.568432; 8237.5298979353
205.63; 38.627387; 8276.8509108683
206.65; 39.643451; 8317.2062328974
207.66; 40.416203; 8358.3481839654
208.68; 40.840683; 8399.9222372473
209.70; 40.926188; 8441.5833303034
210.72; 40.780016; 8483.0956272757
211.74; 40.564264; 8524.3882975768
212.75; 40.441424; 8565.5559218637
213.77; 40.526409; 8606.8100573578
214.79; 40.858587; 8648.4023357855
215.81; 41.399546; 8690.5452868289
216.82; 42.053647; 8733.3540848295
217.84; 42.701967; 8776.8228446279
218.86; 43.237761; 8820.8370191669
219.88; 43.593272; 8865.2130888074
220.90; 43.752189; 8909.7509287219
221.91; 43.74724; 8954.2837313569
222.93; 43.646468; 8998.713952494
223.95; 43.533543; 9043.0292203922
224.97; 43.487258; 9087.2973727522
225.99; 43.563919; 9131.6435626605
227.00; 43.784825; 9176.2146253086
228.02; 44.130196; 9221.1372601337
229.04; 44.540618; 9266.4776874012
230.06; 44.926871; 9312.2113033914
231.08; 45.188021; 9358.2107589664
232.09; 45.235721; 9404.2587704499
233.11; 45.020026; 9450.0872146222
234.13; 44.54995; 9495.4371417647
235.15; 43.901571; 9540.1270469822
236.17; 43.208749; 9584.1116889691
237.18; 42.636082; 9627.5133804465
238.20; 42.339468; 9670.6131315281
239.22; 42.424456; 9713.7993967441
240.24; 42.914541; 9757.484548127
241.26; 43.739582; 9802.0095554662
242.27; 44.748919; 9847.5620235833
243.29; 45.746321; 9894.129804019
244.31; 46.537078; 9941.502540852
245.33; 46.973801; 9989.3198428663
246.35; 46.988158; 10037.1517605
247.36; 46.600519; 10084.589078102
248.38; 45.906603; 10131.320018666
249.40; 45.047189; 10177.176113045
250.42; 44.171329; 10222.140619785
251.44; 43.404072; 10266.324092572
252.45; 42.826657; 10309.919781434
253.47; 42.47191; 10353.154352919
254.49; 42.332399; 10396.246908587
255.51; 42.375498; 10439.383336578
256.53; 42.55886; 10482.706419568
257.54; 42.841591; 10526.317310886
258.56; 43.189368; 10570.282224061
259.58; 43.574528; 10614.63921358
260.60; 43.97359; 10659.402430859
261.61; 44.364558; 10704.563636134
262.63; 44.72523; 10750.091990471
263.65; 45.032503; 10795.933135019
264.67; 45.262067; 10842.007965749
265.69; 45.388241; 10888.211236798
266.70; 45.384478; 10934.410676885
267.72; 45.225649; 10980.448435639
268.74; 44.892953; 11026.147524637
269.76; 44.381056; 11071.325524746
270.78; 43.705447; 11115.815784069
271.79; 42.906884; 11159.493140582
272.81; 42.049969; 11202.298194169
273.83; 41.214596; 11244.252874607
274.85; 40.481695; 11285.461493309
275.87; 39.917182; 11326.095462458
276.88; 39.559207; 11366.365028064
277.90; 39.41286; 11406.485618399
278.92; 39.453828; 11446.647912464
279.94; 39.639048; 11486.998753041
280.96; 39.919769; 11527.635354982
281.97; 40.251765; 11568.609915103
282.99; 40.599141; 11609.938088735
284.01; 40.931406; 11651.604494023
285.03; 41.216929; 11693.561548728
286.05; 41.417741; 11735.723022305
287.06; 41.490168; 11777.95822245
288.08; 41.392916; 11820.094424736
289.10; 41.100493; 11861.932953085
290.12; 40.61668; 11903.278980885
291.14; 39.98198; 11943.978911458
292.15; 39.270801; 11983.954892345
293.17; 38.578026; 12023.225658194
294.19; 37.998835; 12061.906832406
295.21; 37.60836; 12100.190520524
296.23; 37.447788; 12138.310752784
297.24; 37.520825; 12176.505333067
298.26; 37.800293; 12214.984399782
299.28; 38.240775; 12253.911858328
300.30; 38.791422; 12293.399852211
301.32; 39.403953; 12333.511376148
302.33; 40.033961; 12374.264220978
303.35; 40.637391; 12415.63133179
304.37; 41.166618; 12457.537172523
305.39; 41.570731; 12499.854382536
306.41; 41.802338; 12542.407359102
307.42; 41.829518; 12584.988003887
308.44; 41.648265; 12627.384139986
309.46; 41.289531; 12669.4151004
310.48; 40.816459; 12710.964494732
311.49; 40.31106; 12751.999414356
312.51; 39.85392; 12792.568984887
313.53; 39.503604; 12832.781948664
314.55; 39.282855; 12872.770199498
315.57; 39.17631; 12912.649992634
316.58; 39.140185; 12952.493012169
317.60; 39.120008; 12992.315491981
318.62; 39.06979; 13032.086852029
319.64; 38.966001; 13071.752559106
320.66; 38.812221; 13111.261725302
321.67; 38.634202; 13150.589675959
322.69; 38.468554; 13189.749004308
323.71; 38.350061; 13228.787711066
324.73; 38.302096; 13267.777591983
325.75; 38.332373; 13306.798294086
326.76; 38.433458; 13345.921895468
327.78; 38.58558; 13385.200351014
328.80; 38.759077; 13424.655418966
329.82; 38.915197; 13464.269409922
330.84; 39.006197; 13503.976035463
331.85; 38.97729; 13543.653234426
332.87; 38.773063; 13583.122538939
333.89; 38.349298; 13622.160469799
334.91; 37.688228; 13660.525459509
335.93; 36.812564; 13697.99906158
336.94; 35.792499; 13734.434281501
337.96; 34.741018; 13769.799138896
338.98; 33.796244; 13804.20225691
340.00; 33.093933; 13837.890452145
341.02; 32.737061; 13871.215367695
342.03; 32.771169; 13904.575003184
343.05; 33.172921; 13938.343605283
344.07; 33.855597; 13972.807142416
345.09; 34.690074; 14008.12014076
346.11; 35.535206; 14044.293446875
347.12; 36.268858; 14081.213579755
348.14; 36.811091; 14118.685681593
349.16; 37.133925; 14156.486414954
350.18; 37.25665; 14194.412077349
351.20; 37.23005; 14232.310662168
352.21; 37.115871; 14270.093017538
353.23; 36.968361; 14307.725213851
354.25; 36.822926; 14345.209363205
355.27; 36.693705; 14382.5619716
356.28; 36.578506; 14419.797312295
357.30; 36.467252; 14456.919400877
358.32; 36.349632; 14493.921758159
359.34; 36.218921; 14530.791056517
360.36; 36.071253; 14567.510035432
361.37; 35.902032; 14604.056754383
362.39; 35.702492; 14640.400350396
363.41; 35.45938; 14676.49646941
364.43; 35.159203; 14712.287020472
365.45; 34.796235; 14747.708086222
366.46; 34.381417; 14782.706884636
367.48; 33.948178; 14817.264665112
368.50; 33.551725; 14851.418873117
369.52; 33.260172; 14885.276293219
370.54; 33.138676; 14919.0100357
371.55; 33.230347; 14952.837094509
372.57; 33.539408; 14986.978764867
373.59; 34.022126; 15021.611821014
374.61; 34.589307; 15056.822242739
375.63; 35.121186; 15092.574094077
376.64; 35.49199; 15128.703408674
377.66; 35.598527; 15164.941173439
378.68; 35.385601; 15200.962188336
379.70; 34.861502; 15236.449693521
380.72; 34.099122; 15271.161128714
381.73; 33.221865; 15304.979553835
382.75; 32.377493; 15337.938444339
383.77; 31.706208; 15370.213996081
384.79; 31.310804; 15402.087043651
385.81; 31.236145; 15433.884090967
386.82; 31.462756; 15465.911818977
387.84; 31.915611; 15498.400533786
388.86; 32.485292; 15531.469158947
389.88; 33.055703; 15565.118438478
390.90; 33.531117; 15599.251668659
391.91; 33.855865; 15633.715478771
392.93; 34.022239; 15668.348649758
393.95; 34.065379; 15703.025735951
394.97; 34.047369; 15737.684488189
395.99; 34.0354; 15772.331056997
397.00; 34.080308; 15807.023340296
398.02; 34.201507; 15841.838998609
399.04; 34.382629; 15876.839031294
400.06; 34.579263; 15912.039229106
401.07; 34.736794; 15947.399786398
402.09; 34.813262; 15982.838184693
403.11; 34.800226; 16018.263312599
404.13; 34.734493; 16053.621527707
405.15; 34.695627; 16088.940179077
406.16; 34.788058; 16124.352920916
407.18; 35.111547; 16160.094960371
408.20; 35.728205; 16196.46473176
409.22; 36.636676; 16233.759286656
410.24; 37.76322; 16272.200615157
411.25; 38.975087; 16311.875572178
412.27; 40.114564; 16352.710466832
413.29; 41.044712; 16394.492212856
414.31; 41.69256; 16436.933439932
415.33; 42.074644; 16479.763611974
416.34; 42.294315; 16522.817399672
417.36; 42.509013; 16566.089740824
418.38; 42.876186; 16609.735847548
419.40; 43.494933; 16654.011811965
420.42; 44.363551; 16699.171992249
421.43; 45.369258; 16745.355939546
422.45; 46.31636; 16792.503995834
423.47; 46.9861; 16840.333817996
424.49; 47.209948; 16888.39150762
425.51; 46.932331; 16936.166595283
426.52; 46.241151; 16983.238091416
427.54; 45.354425; 17029.406938639
428.56; 44.565742; 17074.772941063
429.58; 44.165055; 17119.731060966
430.60; 44.359786; 17164.887409192
431.61; 45.221381; 17210.920824134
432.63; 46.674141; 17258.433085559
433.65; 48.529394; 17307.833914198
434.67; 50.553463; 17359.29515787
435.69; 52.547388; 17412.786131023
436.70; 54.413295; 17468.176517166
437.72; 56.187349; 17525.372813537
438.74; 58.030286; 17584.445140551
439.76; 60.179718; 17645.705496873
440.78; 62.879339; 17709.713950577
441.79; 66.305676; 17777.210267977
442.81; 70.511934; 17848.98837416
443.83; 75.401853; 17925.744206285
444.85; 80.737127; 18007.931117585
445.87; 86.172946; 18095.651457586
446.88; 91.31028; 18188.601382206
447.90; 95.751871; 18286.072655188
448.92; 99.151039; 18387.00413426
449.94; 101.24694; 18490.069154154
450.95; 101.88477; 18593.783449847
451.97; 101.02273; 18696.620232294
452.99; 98.729245; 18797.122343641
454.01; 95.172754; 18894.004100172
455.03; 90.605403; 18986.236490826
456.04; 85.340181; 19073.1091129
457.06; 79.721199; 19154.261853067
458.08; 74.088179; 19229.680421965
459.10; 68.738737; 19299.653489917
460.12; 63.894484; 19364.695317969
461.13; 59.67818; 19425.445129836
462.15; 56.108138; 19482.560793319
463.17; 53.112737; 19536.627267825
464.19; 50.562851; 19588.098068102
465.21; 48.314884; 19637.280535141
466.22; 46.253519; 19684.364621537
467.24; 44.322743; 19729.483261627
468.26; 42.536716; 19772.783802821
469.28; 40.967875; 19814.487331638
470.30; 39.716647; 19854.917164738
471.31; 38.872896; 19894.488095172
472.33; 38.481814; 19933.660921216
473.35; 38.525324; 19972.878038124
474.37; 38.924591; 20012.501592488
475.39; 39.561898; 20052.773897172
476.40; 40.313352; 20093.811150294
477.42; 41.080331; 20135.629154136
478.44; 41.808331; 20178.18823059
479.46; 42.486969; 20221.438131633
480.48; 43.132152; 20265.344800845
481.49; 43.75833; 20309.888892987
482.51; 44.352548; 20355.037873411
483.53; 44.861246; 20400.704685994
484.55; 45.195819; 20446.712079813
485.57; 45.255642; 20492.780370297
486.58; 44.960485; 20538.548204405
487.60; 44.280632; 20583.623976783
488.62; 43.253785; 20627.654463326
489.64; 41.982799; 20670.391140744
490.66; 40.615198; 20711.735659367
491.67; 39.311774; 20751.753349358
492.69; 38.214791; 20790.654357603
493.71; 37.425428; 20828.751827972
494.73; 36.995724; 20866.411878617
495.74; 36.934353; 20904.009456632
496.76; 37.220635; 20941.898456741
497.78; 37.819156; 20980.396725739
498.80; 38.688813; 21019.780267967
499.82; 39.784014; 21060.278677661
500.83; 41.050275; 21102.066086544
501.85; 42.419328; 21145.247131779
502.87; 43.808937; 21189.842739058
503.89; 45.129979; 21235.783109729
504.91; 46.299342; 21282.913841587
505.92; 47.253889; 21331.016261022
506.94; 47.959667; 21379.837132567
507.96; 48.412353; 21429.118818712
508.98; 48.6287; 21478.620736995
510.00; 48.632813; 21528.126841698
511.01; 48.443409; 21577.440142142
512.03; 48.067807; 21626.371095206
513.05; 47.505238; 21674.729377348
514.07; 46.757773; 21722.326772809
515.09; 45.84348; 21768.993457087
516.10; 44.805234; 21814.603252157
517.12; 43.710363; 21859.09851571
518.14; 42.640247; 21902.504446725
519.16; 41.673419; 21944.926189469
520.18; 40.868591; 21986.528651943
521.19; 40.254106; 22027.505594965
522.21; 39.827681; 22068.048455958
523.23; 39.566011; 22108.324947496
524.25; 39.439857; 22148.473019537
525.27; 39.42828; 22188.609307455
526.28; 39.526406; 22228.845482974
527.30; 39.744132; 22269.303294494
528.32; 40.097101; 22310.120413353
529.34; 40.594313; 22351.443672051
530.36; 41.227842; 22393.411835935
531.37; 41.968907; 22436.134371794
532.39; 42.771751; 22479.674168977
533.41; 43.58374; 22524.040535433
534.43; 44.357932; 22569.194995876
535.45; 45.063916; 22615.068117742
536.46; 45.693727; 22661.582359908
537.48; 46.2616; 22708.674672274
538.50; 46.798258; 22756.313279005
539.52; 47.341705; 22804.505091357
540.54; 47.92692; 22853.292627898
541.55; 48.576558; 22902.741468006
542.57; 49.294171; 22952.920807054
543.59; 50.060877; 23003.880619742
544.61; 50.835924; 23055.62939624
545.62; 51.561194; 23108.116466771
546.64; 52.169286; 23161.222549225
547.66; 52.59432; 23214.761297614
548.68; 52.784202; 23268.493337436
549.70; 52.712804; 23322.152697019
550.71; 52.390395; 23375.483858206
551.73; 51.870654; 23428.285945767
552.75; 51.252557; 23480.458837167
553.77; 50.675416; 23532.044223695
554.79; 50.305636; 23583.25319035
555.80; 50.314756; 23634.471440948
556.82; 50.850362; 23686.234915163
557.84; 52.004324; 23739.173072779
558.86; 53.785629; 23793.92452187
559.88; 56.106486; 23851.038503744
560.89; 58.789063; 23910.883232929
561.91; 61.595621; 23973.584916943
562.93; 64.277873; 24039.017018123
563.95; 66.634259; 24106.847818338
564.97; 68.559476; 24176.638406106
565.98; 70.071322; 24247.967988689
567.00; 71.306219; 24320.554642265
568.02; 72.484837; 24394.341078335
569.04; 73.859379; 24469.526739295
570.06; 75.659947; 24546.545300151
571.07; 78.056482; 24626.003430881
572.09; 81.145081; 24708.605621693
573.11; 84.95633; 24795.087499563
574.13; 89.473955; 24886.168124571
575.15; 94.649073; 24982.516796118
576.16; 100.40073; 25084.720409547
577.18; 106.60499; 25193.239685176
578.20; 113.08687; 25308.357241828
579.22; 119.63576; 25430.141281749
580.24; 126.05976; 25558.464672791
581.25; 132.27958; 25693.119574046
582.27; 138.44145; 25834.047001217
583.29; 145.01147; 25981.662421574
584.31; 152.80865; 26137.215030369
585.33; 162.94586; 26303.086883274
