#Wavenumber (cm^-1); Spectrum (K*cm*km*mol^-1); Integral (K*km*mol^-1)
0.00; 6.361637; 6.4758719354522
1.02; 6.7205231; 13.317074407476
2.04; 7.7827828; 21.239611455338
3.05; 9.5039472; 30.914219629069
4.07; 11.807563; 42.933808875144
5.09; 14.587237; 57.782986236477
6.11; 17.717132; 75.818261579189
7.13; 21.072171; 97.268822150135
8.14; 24.554206; 122.26394418273
9.16; 28.115985; 150.8848040862
10.18; 31.773379; 183.22873280459
11.20; 35.599184; 219.46716574971
12.22; 39.698321; 259.87834325526
13.23; 44.171812; 304.84334200147
14.25; 49.082263; 354.80696730601
15.27; 54.433875; 410.21830292848
16.29; 60.174571; 471.47341928255
17.31; 66.218409; 538.88090232271
18.32; 72.477169; 612.65953256671
19.34; 78.885133; 692.96119392717
20.36; 85.403659; 779.89843388002
21.38; 92.001746; 873.55224157042
22.40; 98.621747; 973.9449241132
23.41; 105.14967; 1080.9827482943
24.43; 111.41155; 1194.3948996697
25.45; 117.20882; 1313.7084182677
26.47; 122.38847; 1438.2946004493
27.48; 126.9255; 1567.4992825892
28.50; 130.98327; 1700.8346042868
29.52; 134.91994; 1838.1772770148
30.54; 139.22607; 1979.9034037964
31.56; 144.40581; 2126.902281974
32.57; 150.83936; 2280.4502399301
33.59; 158.67773; 2441.977316983
34.61; 167.81304; 2612.8037471446
35.63; 177.94072; 2793.9397211693
36.65; 188.69252; 2986.0205642219
37.66; 199.78752; 3189.3956423545
38.68; 211.13635; 3404.3233361267
39.70; 222.84918; 3631.1741823668
40.72; 235.13709; 3870.5335959164
41.74; 248.14366; 4123.1331366977
42.75; 261.77937; 4389.6132417651
43.77; 275.63867; 4670.2015094769
44.79; 289.05171; 4964.4436768475
45.81; 301.26936; 5271.1228873254
46.83; 311.7211; 5588.441516176
47.84; 320.24688; 5914.4390213184
48.86; 327.20371; 6247.5182772103
49.88; 333.38961; 6586.8945096231
50.90; 339.79751; 6932.7937166661
51.92; 347.28231; 7286.3121267107
52.93; 356.26607; 7648.9756099324
53.95; 366.60043; 8022.1590281697
54.97; 377.65014; 8406.5905780647
55.99; 388.57709; 8802.1452849035
57.01; 398.72289; 9208.0279806761
58.02; 407.9424; 9623.2957450475
59.04; 416.75022; 10047.529480921
60.06; 426.20632; 10481.389123062
61.08; 437.56257; 10926.808937663
62.10; 451.78296; 11386.704497133
63.11; 469.10411; 11864.232242785
64.13; 488.79697; 12361.806468754
65.15; 509.22821; 12880.178811483
66.17; 528.22203; 13417.886040691
67.19; 543.62404; 13971.271855596
68.20; 553.90195; 14535.120135794
69.22; 558.60379; 15103.754689024
70.24; 558.53616; 15672.32040097
71.26; 555.6062; 16237.903538433
72.27; 552.3663; 16800.188596269
73.29; 551.38126; 17361.470920966
74.31; 554.58305; 17926.012529757
75.33; 562.77962; 18498.897896851
76.35; 575.44373; 19084.67478488
77.36; 590.83812; 19686.122496319
78.38; 606.45106; 20303.463503173
79.40; 619.63974; 20934.230018835
80.42; 628.32454; 21573.837284494
81.44; 631.55778; 22216.735849252
82.45; 629.81345; 22857.858759484
83.47; 624.90767; 23493.987804668
84.49; 619.55248; 24124.665489701
85.51; 616.64558; 24752.384079967
86.53; 618.47978; 25381.969811423
87.54; 626.09016; 26019.302581332
88.56; 638.9309; 26669.706669135
89.58; 654.98778; 27336.45596939
90.60; 671.3092; 28019.819762718
91.62; 684.81431; 28716.931176124
92.63; 693.15149; 29422.529480766
93.65; 695.36205; 30130.378046146
94.67; 692.16135; 30834.968431302
95.69; 685.76338; 31533.04595666
96.71; 679.30929; 32224.553505337
97.72; 676.07076; 32912.764370081
98.74; 678.65228; 33603.603103628
99.76; 688.39925; 34304.363833053
100.78; 705.14269; 35022.168661489
101.80; 727.30709; 35762.535896982
102.81; 752.31214; 36528.357188344
103.83; 777.13906; 37319.451212372
104.85; 798.91998; 38132.717276904
105.87; 815.43494; 38962.794861472
106.89; 825.44677; 39803.06405155
107.90; 828.84721; 40646.794742183
108.92; 826.61608; 41488.254237477
109.94; 820.60866; 42323.598446583
110.96; 813.19549; 43151.396367285
111.98; 806.79396; 43972.677804141
112.99; 803.35804; 44790.461622394
114.01; 803.92262; 45608.82015676
115.03; 808.31644; 46431.651416026
116.05; 815.14406; 47261.432891548
117.07; 822.08379; 48098.278719181
118.08; 826.46403; 48939.583441711
119.10; 825.98811; 49780.403691962
120.12; 819.41318; 50614.53095185
121.14; 806.97916; 51436.000916927
122.15; 790.44171; 52240.636470099
123.17; 772.67602; 53027.187312792
124.19; 756.95032; 53797.730070392
125.21; 746.07546; 54557.202697917
126.23; 741.68066; 55312.201607463
127.24; 743.82842; 56069.386842786
128.26; 751.07501; 56833.948795213
129.28; 760.94201; 57608.554926047
130.30; 770.63793; 58393.03108134
131.32; 777.79903; 59184.796927145
132.33; 781.02705; 59979.848758842
133.35; 780.08254; 60773.939120469
134.37; 775.71473; 61563.583237319
135.39; 769.2281; 62346.624251493
136.41; 761.96158; 63122.268256626
137.42; 754.86513; 63890.688380777
138.44; 748.30334; 64652.428887662
139.46; 742.11976; 65407.874778846
140.48; 735.89756; 66156.986741001
141.50; 729.28615; 66899.368567038
142.51; 722.25107; 67634.588988653
143.53; 715.14639; 68362.577155661
144.55; 708.58523; 69083.886346521
145.57; 703.16566; 69799.678643916
146.59; 699.16513; 70511.398576716
147.60; 696.32869; 71220.231131318
148.62; 693.84157; 71926.531908046
149.64; 690.51055; 72629.441854823
150.66; 685.10404; 73326.848202707
151.68; 676.74495; 74015.745354316
152.69; 665.23061; 74692.921413293
153.71; 651.17547; 75355.789937725
154.73; 635.92667; 76003.135848558
155.75; 621.27204; 76635.563977427
156.77; 609.02098; 77255.521051336
157.78; 600.57544; 77866.88093554
158.80; 596.60875; 78474.202898514
159.82; 596.93699; 79081.858995749
160.84; 600.61186; 79693.255949498
161.86; 606.2014; 80310.342812046
162.87; 612.17448; 80933.510018237
163.89; 617.27964; 81561.874057593
164.91; 620.81539; 82193.837334451
165.93; 622.72506; 82827.744574048
166.94; 623.50333; 83462.444061814
167.96; 623.95794; 84097.606318465
168.98; 624.9117; 84733.73946617
170.00; 626.94397; 85371.941373044
171.02; 630.25207; 86013.510786516
172.03; 634.66842; 86659.575848676
173.05; 639.81149; 87310.876334211
174.07; 645.29942; 87967.763297549
175.09; 650.93069; 88630.382650968
176.11; 656.74816; 89298.923942374
177.12; 662.94803; 89973.776429781
178.14; 669.65907; 90655.460463506
179.16; 676.67712; 91344.288566872
180.18; 683.27091; 92039.828866551
181.20; 688.16374; 92740.349862824
182.21; 689.74089; 93442.476327039
183.23; 686.45185; 94141.25469096
184.25; 677.29787; 94830.714698828
185.27; 662.24831; 95504.854903121
186.29; 642.43517; 96158.826181215
187.30; 620.03555; 96789.995614357
188.32; 597.84924; 97398.580339972
189.34; 578.67995; 97987.651556683
190.36; 564.69839; 98562.490151987
191.38; 556.97659; 99129.468286227
192.39; 555.33029; 99694.770560947
193.41; 558.50694; 100263.30652833
194.43; 564.64507; 100838.09084719
195.45; 571.84658; 101420.20598638
196.47; 578.67549; 102009.2726648
197.48; 584.43432; 102604.20158616
198.50; 589.15616; 103203.93713592
199.52; 593.35428; 103807.94619344
200.54; 597.65242; 104416.33056885
201.56; 602.44936; 105029.59802331
202.57; 607.74292; 105648.25408845
203.59; 613.16488; 106272.42947352
204.61; 618.19143; 106901.72167709
205.63; 622.42698; 107535.32548198
206.65; 625.83744; 108172.40098652
207.66; 628.83761; 108812.530534
208.68; 632.20002; 109456.08287281
209.70; 636.82319; 110104.34140211
210.72; 643.44626; 110759.34193049
211.74; 652.4079; 111423.4650206
212.75; 663.52017; 112098.89992003
213.77; 676.07856; 112787.11872008
214.79; 688.98133; 113488.47198694
215.81; 700.90413; 114201.96214228
216.82; 710.47759; 114925.19767186
217.84; 716.43953; 115654.50220221
218.86; 717.76195; 116385.1528924
219.88; 713.7698; 117111.73974342
220.90; 704.263; 117828.64909137
221.91; 689.6295; 118530.66216585
222.93; 670.90995; 119213.61954419
223.95; 649.7622; 119875.04942409
224.97; 628.28741; 120514.61889632
225.99; 608.71941; 121134.26899203
227.00; 593.02993; 121737.94786918
228.02; 582.54323; 122330.95174431
229.04; 577.66545; 122918.99024704
230.06; 577.80833; 123507.17419
231.08; 581.53294; 124099.14962874
232.09; 586.87518; 124696.56323344
233.11; 591.76559; 125298.95506567
234.13; 594.43838; 125904.06768076
235.15; 593.74084; 126508.47023241
236.17; 589.29504; 127108.34715198
237.18; 581.5088; 127700.29801754
238.20; 571.4657; 128282.02543969
239.22; 560.73509; 128852.82956825
240.24; 551.13689; 129413.86314406
241.26; 544.48371; 129968.12406705
242.27; 542.3179; 130520.18028822
243.29; 545.6684; 131075.64717176
244.31; 554.867; 131640.47783581
245.33; 569.47289; 132220.1766639
246.35; 588.34455; 132819.08602696
247.36; 609.86489; 133439.90216849
248.38; 632.27661; 134083.53247865
249.40; 654.03997; 134749.31694978
250.42; 674.10596; 135435.52772978
251.44; 692.01832; 136139.97252031
252.45; 707.81485; 136860.49749662
253.47; 721.77233; 137595.23058771
254.49; 734.10056; 138342.51328296
255.51; 744.71239; 139100.59835915
256.53; 753.16725; 139867.29011747
257.54; 758.81497; 140639.73101086
258.56; 761.08287; 141414.48052604
259.58; 759.78676; 142187.91065921
260.60; 755.33196; 142956.80600036
261.61; 748.7105; 143718.96098051
262.63; 741.27973; 144473.55175972
263.65; 734.39347; 145221.13262534
264.67; 729.01523; 145963.23867254
265.69; 725.45136; 146701.71685009
266.70; 723.29793; 147438.00293128
267.72; 721.61734; 148172.57824292
268.74; 719.27974; 148904.77397829
269.76; 715.35073; 149632.97015504
270.78; 709.39766; 150355.10636594
271.79; 701.62247; 151069.32776607
272.81; 692.79283; 151774.56096698
273.83; 684.01073; 152470.85436894
274.85; 676.40585; 153159.40633288
275.87; 670.85629; 153842.30908793
276.88; 667.82085; 154522.12189296
277.90; 667.32396; 155201.42889229
278.92; 669.08253; 155882.52603394
279.94; 672.71812; 156567.32405452
280.96; 677.97176; 157257.47005379
281.97; 684.83709; 157954.60466075
282.99; 693.55326; 158660.61195342
284.01; 704.44459; 159377.70614356
285.03; 717.649; 160108.24185383
286.05; 732.82549; 160854.22658493
287.06; 748.95483; 161616.63028795
288.08; 764.33506; 162394.69039231
289.10; 776.82153; 163185.46118673
290.12; 784.28145; 163983.82586068
291.14; 785.14992; 164783.07459933
292.15; 778.91941; 165575.98094427
293.17; 766.3922; 166356.13513535
294.19; 749.58485; 167119.18016273
295.21; 731.28038; 167863.59203183
296.23; 714.3437; 168590.76308857
297.24; 701.00369; 169304.35459573
298.26; 692.32768; 170009.1142961
299.28; 688.05639; 170709.52600986
300.30; 686.84904; 171408.70869293
301.32; 686.84948; 172107.89182912
302.33; 686.37713; 172806.59412483
303.35; 684.5092; 173503.39495332
304.37; 681.36711; 174196.99727007
305.39; 678.02904; 174887.20157723
306.41; 676.12167; 175575.4642629
307.42; 677.24683; 176264.87231306
308.44; 682.4399; 176959.56667769
309.46; 691.82698; 177663.81669167
310.48; 704.56699; 178381.03547955
311.49; 719.06755; 179113.0152146
312.51; 733.38758; 179859.57212402
313.53; 745.70422; 180618.66683759
314.55; 754.72999; 181386.94939735
315.57; 760.00032; 182160.59692427
316.58; 761.99068; 182936.27055343
317.60; 762.05201; 183712.00661656
318.62; 762.17051; 184487.8633029
319.64; 764.57327; 185266.16589462
320.66; 771.22578; 186051.24045444
321.67; 783.30358; 186848.60969675
322.69; 800.75763; 187663.74640521
323.71; 822.10868; 188500.6175674
324.73; 844.57944; 189360.3629921
325.75; 864.59629; 190240.48470708
326.76; 878.58136; 191134.84262346
327.78; 883.84558; 192034.55928854
328.80; 879.32924; 192929.67851102
329.82; 865.95154; 193811.17981233
330.84; 846.43103; 194672.81007118
331.85; 824.59766; 195512.21490185
332.87; 804.38206; 196331.04112937
333.89; 788.77885; 197133.98396247
334.91; 779.09665; 197927.07073588
335.93; 774.71914; 198715.70139194
336.94; 773.43829; 199503.02819419
337.96; 772.23983; 200289.13501356
338.98; 768.28366; 201071.21462438
340.00; 759.77323; 201844.63098526
341.02; 746.45952; 202604.49456136
342.03; 729.65369; 203347.25052948
343.05; 711.77993; 204071.81178282
344.07; 695.63357; 204779.93674246
345.09; 683.58021; 205475.79189674
346.11; 676.92507; 206164.87241064
347.12; 675.61107; 206852.615331
348.14; 678.2983; 207543.09372728
349.16; 682.77257; 208238.1267362
350.18; 686.55307; 208937.00813932
351.20; 687.53321; 209636.88727472
352.21; 684.49516; 210333.67380628
353.23; 677.37913; 211023.21653361
354.25; 667.24975; 211702.4479813
355.27; 655.97303; 212370.20021909
356.28; 645.68556; 213027.48026115
357.30; 638.18988; 213677.13001872
358.32; 634.43557; 214322.95805153
359.34; 634.23306; 214968.57994004
360.36; 636.29361; 215616.29937469
361.37; 638.60296; 216266.36962649
362.39; 639.03773; 216916.88245844
363.41; 636.05199; 217564.35593771
364.43; 629.22564; 218204.88048909
365.45; 619.49355; 218835.49818753
366.46; 608.96251; 219455.39574379
367.48; 600.34846; 220066.52456856
368.50; 596.18919; 220673.41943662
369.52; 598.06715; 221282.22598943
370.54; 606.08317; 221899.19249814
371.55; 618.75033; 222529.05362891
372.57; 633.34948; 223173.77607292
373.59; 646.64488; 223832.0326564
374.61; 655.74772; 224499.5555346
375.63; 658.87274; 225170.25955674
376.64; 655.77089; 225837.80602224
377.66; 647.72505; 226497.16217274
378.68; 637.13064; 227145.73367181
379.70; 626.80284; 227783.79191273
380.72; 619.22235; 228414.13354565
381.73; 615.93246; 229041.12620815
382.75; 617.23805; 229669.44791068
383.77; 622.25766; 230302.87935733
384.79; 629.27605; 230943.45522379
385.81; 636.26992; 231591.15054913
386.82; 641.45021; 232244.11918629
387.84; 643.68364; 232899.36135432
388.86; 642.70925; 233553.61163167
389.88; 639.13173; 234204.22015598
390.90; 634.23072; 234849.83966501
391.91; 629.65981; 235490.80617967
392.93; 627.11698; 236129.18420873
393.95; 628.05383; 236768.51591001
394.97; 633.46461; 237413.35554876
395.99; 643.76912; 238068.68473115
397.00; 658.78284; 238739.29723025
398.02; 677.75762; 239429.22523678
399.04; 699.4756; 240141.26121594
400.06; 722.38421; 240876.61717257
401.07; 744.76626; 241634.75708407
402.09; 764.94204; 242413.43507242
403.11; 781.49674; 243208.96503418
404.13; 793.51571; 244016.72978906
405.15; 800.79513; 244831.90467281
406.16; 803.98121; 245650.32285069
407.18; 804.5855; 246469.35616741
408.20; 804.83377; 247288.64221366
409.22; 807.33588; 248110.47529727
410.24; 814.60965; 248939.71276644
411.25; 828.54311; 249783.13390411
412.27; 849.91849; 250648.31424826
413.29; 878.13084; 251542.21354548
414.31; 911.20336; 252469.77924988
415.33; 946.13129; 253432.90008056
416.34; 979.49474; 254429.98345674
417.36; 1008.1958; 255456.28322985
418.38; 1030.1265; 256504.90755847
419.40; 1044.5848; 257568.24982596
420.42; 1052.3228; 258639.46901921
421.43; 1055.2232; 259713.6406682
422.45; 1055.7115; 260788.30940802
423.47; 1056.09; 261863.36347375
424.49; 1057.9939; 262940.35563539
425.51; 1062.1169; 264021.5448335
426.52; 1068.2523; 265108.97959503
427.54; 1075.5851; 266203.8788499
428.56; 1083.093; 267306.42074598
429.58; 1089.8946; 268415.88644257
430.60; 1095.431; 269530.98789393
431.61; 1099.4475; 270650.17804809
432.63; 1101.8384; 271771.80204011
433.65; 1102.4655; 272894.06437936
434.67; 1101.0678; 274014.90390117
435.69; 1097.3244; 275131.93281778
436.70; 1091.0569; 276242.58169213
437.72; 1082.4879; 277344.50762046
438.74; 1072.4422; 278436.20746083
439.76; 1062.3973; 279517.68203749
440.78; 1054.3452; 280590.9600031
441.79; 1050.4993; 281660.32294632
442.81; 1052.9273; 282732.15747736
443.83; 1063.208; 283814.45734781
444.85; 1082.1814; 284916.07126615
445.87; 1109.8198; 286045.81992991
446.88; 1145.21; 287211.5942678
447.90; 1186.6185; 288419.5206472
448.92; 1231.6288; 289673.26563201
449.94; 1277.3628; 290973.56588627
450.95; 1320.8132; 292318.09671227
451.97; 1359.2984; 293701.80382912
452.99; 1391.0003; 295117.78208823
454.01; 1415.4753; 296558.67481873
455.03; 1433.9807; 298018.40531224
456.04; 1449.4563; 299493.88928234
457.06; 1466.0684; 300986.28362471
458.08; 1488.3516; 302501.36131018
459.10; 1520.126; 304048.78394766
460.12; 1563.4771; 305640.33618347
461.13; 1618.1114; 307287.50379826
462.15; 1681.3171; 308999.01208643
463.17; 1748.5909; 310779.0021498
464.19; 1814.7832; 312626.37313104
465.21; 1875.443; 314535.49321454
466.22; 1927.9669; 316498.0803671
467.24; 1972.2102; 318505.70529651
468.26; 2010.3839; 320552.18940508
469.28; 2046.2848; 322635.21903529
470.30; 2084.1129; 324756.75605726
471.31; 2127.2504; 326922.20518402
472.33; 2177.3693; 329138.67320742
473.35; 2234.1134; 331412.90428383
474.37; 2295.4036; 333749.52606096
475.39; 2358.2192; 336150.0914621
476.40; 2419.5746; 338613.11395953
477.42; 2477.373; 341134.97279931
478.44; 2530.8926; 343711.31229023
479.46; 2580.7906; 346338.44573371
480.48; 2628.6693; 349014.31760131
481.49; 2676.3683; 351738.74506025
482.51; 2725.2076; 354512.8887541
483.53; 2775.3979; 357338.12409625
484.55; 2825.7788; 360214.64493343
485.57; 2873.9512; 363140.20320703
486.58; 2916.7868; 366109.36632112
487.60; 2951.2076; 369113.56828127
488.62; 2975.0676; 372142.05872717
489.64; 2987.9268; 375183.6392611
490.66; 2991.4956; 378228.85268017
491.67; 2989.5698; 381272.10568082
492.69; 2987.3683; 384313.11765011
493.71; 2990.3362; 387357.15082385
494.73; 3002.6461; 390413.71493363
495.74; 3025.7766; 393493.82494972
496.76; 3057.6053; 396606.3351854
497.78; 3092.3782; 399754.24274652
498.80; 3121.7094; 402932.00817921
499.82; 3136.4593; 406124.78838951
500.83; 3129.0404; 409310.01647639
501.85; 3095.5031; 412461.10505456
502.87; 3036.7548; 415552.39035712
503.89; 2958.4801; 418563.99545102
504.91; 2869.7134; 421485.23988291
505.92; 2780.4387; 424315.60645024
506.94; 2698.9209; 427062.99150722
507.96; 2629.579; 429739.78948658
508.98; 2572.0486; 432358.02401304
510.00; 2521.7085; 434925.01443673
511.01; 2471.4706; 437440.86484988
512.03; 2414.2374; 439898.45431044
513.05; 2345.2353; 442285.80269377
514.07; 2263.5108; 444589.95902321
515.09; 2172.1799; 446801.14445265
516.10; 2077.4485; 448915.89741171
517.12; 1986.8023; 450938.37639904
518.14; 1906.988; 452879.60789591
519.16; 1842.4016; 454755.09319515
520.18; 1794.2923; 456581.60537143
521.19; 1760.8841; 458374.10937774
522.21; 1738.2187; 460143.5409733
523.23; 1721.3503; 461895.80134363
524.25; 1705.4973; 463631.92402845
525.27; 1686.8704; 465349.08530507
526.28; 1663.0745; 467042.02333368
527.30; 1633.1382; 468704.48750908
528.32; 1597.312; 470330.4821509
529.34; 1556.7727; 471915.20960844
530.36; 1513.3144; 473455.69839067
531.37; 1469.0365; 474951.11417135
532.39; 1426.0104; 476402.7312253
533.41; 1385.922; 477813.54002917
534.43; 1349.7393; 479187.51643863
535.45; 1317.4989; 480528.67344574
536.46; 1288.3082; 481840.11562001
537.48; 1260.61; 483123.36215896
538.50; 1232.66; 484378.15687847
539.52; 1203.0822; 485602.84268152
540.54; 1171.3133; 486795.18903892
541.55; 1137.7763; 487953.39619265
542.57; 1103.7124; 489076.92779841
543.59; 1070.7242; 490166.87884656
544.61; 1040.1943; 491225.75172932
545.62; 1012.7908; 492256.7290503
546.64; 988.24083; 493262.71557189
547.66; 965.45229; 494245.50434054
548.68; 942.9373; 495205.37382692
549.70; 919.38118; 496141.26419969
550.71; 894.15203; 497051.47237868
551.73; 867.57251; 497934.62375971
552.75; 840.8635; 498790.58651506
553.77; 815.78433; 499621.01975658
554.79; 794.09539; 500429.37459445
555.80; 777.021; 501220.34843751
556.82; 764.88172; 501998.96502602
557.84; 757.00298; 502769.5613906
558.86; 751.91574; 503534.97916552
559.88; 747.77707; 504296.18395257
560.89; 742.87841; 505052.40211658
561.91; 736.09354; 505801.7135716
562.93; 727.14511; 506541.91591469
563.95; 716.62727; 507271.41155068
564.97; 705.79241; 507989.87776507
565.98; 696.17337; 508698.55221724
567.00; 689.15173; 509400.07893926
568.02; 685.58977; 510097.97974464
569.04; 685.6189; 510795.91019952
570.06; 688.62799; 511496.90377951
571.07; 693.43737; 512202.79309493
572.09; 698.59326; 512913.93088709
573.11; 702.68959; 513629.23856951
574.13; 704.62577; 514346.51719853
575.15; 703.73993; 515062.8940769
576.16; 699.80523; 515775.26560114
577.18; 692.92544; 516480.6337989
578.20; 683.39735; 517176.30281546
579.22; 671.61062; 517859.97344101
580.24; 658.02945; 518529.8190223
581.25; 643.25615; 519184.62602286
582.27; 628.13153; 519824.03681397
583.29; 613.80103; 520448.85977303
584.31; 601.67925; 521061.34328615
