#Wavenumber (cm^-1); Spectrum (K*cm*km*mol^-1); Integral (K*km*mol^-1)
0.00; 0.048434552; 0.049304284054638
1.02; 0.051587536; 0.10181816947524
2.04; 0.060971417; 0.16388444078973
3.05; 0.076318623; 0.24157350533015
4.07; 0.097075687; 0.34039236573607
5.09; 0.12234065; 0.46492986784151
6.11; 0.15091346; 0.61855325869435
7.13; 0.18149092; 0.80330318238407
8.14; 0.21296009; 1.0200873635536
9.16; 0.24467981; 1.2691608486671
10.18; 0.27662472; 1.5507528779976
11.20; 0.30931351; 1.8656206884319
12.22; 0.34353475; 2.2153242396573
13.23; 0.37997883; 2.6021262877041
14.25; 0.41893671; 3.0285857795718
15.27; 0.46020693; 3.4970565708372
16.29; 0.50326547; 4.009359107318
17.31; 0.54763459; 4.5668274893889
18.32; 0.59328813; 5.1707691995134
19.34; 0.64089934; 5.8231770700466
20.36; 0.69178873; 6.5273881436144
21.38; 0.74754636; 7.2883580762813
22.40; 0.80943735; 8.1123303691917
23.41; 0.87779532; 9.0058881259785
24.43; 0.95162682; 9.9746031622096
25.45; 1.0285838; 11.021657112596
26.47; 1.1053382; 12.146843744345
27.48; 1.1782611; 13.346262712333
28.50; 1.2442185; 14.612823489557
29.52; 1.3012737; 15.937463930353
30.54; 1.3491294; 17.310819402903
31.56; 1.3892319; 18.724997555687
32.57; 1.4245475; 20.175125459184
33.59; 1.4590889; 21.660414963533
34.61; 1.4972998; 23.184601551151
35.63; 1.5434049; 24.75572110001
36.65; 1.6008163; 26.385283040968
37.66; 1.6716748; 28.086975884864
38.68; 1.7565848; 29.875103363423
39.70; 1.8545851; 31.762990995199
40.72; 1.9633631; 33.761609888338
41.74; 2.0796689; 35.878623045642
42.75; 2.1998429; 38.117968194056
43.77; 2.3203364; 40.479970474301
44.79; 2.4381153; 42.96186667534
45.81; 2.5508885; 45.558561051388
46.83; 2.657168; 48.263443426546
47.84; 2.7562354; 51.069172126732
48.86; 2.8480992; 53.968414168917
49.88; 2.9334972; 56.954587753587
50.90; 3.0139213; 60.022629597794
51.92; 3.0915716; 63.169716046206
52.93; 3.1691291; 66.395752679545
53.95; 3.2492886; 69.703388288329
54.97; 3.3341099; 73.097368249601
55.99; 3.4243714; 76.583230520308
57.01; 3.5191829; 80.165606877961
58.02; 3.6160726; 83.846612722405
59.04; 3.7116135; 87.624875114111
60.06; 3.8024417; 91.495596655774
61.08; 3.8863271; 95.45170989605
62.10; 3.9628925; 99.48576349369
63.11; 4.0336716; 103.59186715207
64.13; 4.1014383; 107.76695431721
65.15; 4.1690374; 112.01085451026
66.17; 4.2381705; 116.32512914633
67.19; 4.3086391; 120.71113777735
68.20; 4.3783916; 125.16815146337
69.22; 4.4443979; 129.69235673349
70.24; 4.5040304; 134.27726531717
71.26; 4.5563946; 138.91547835713
72.27; 4.6030382; 143.60117260574
73.29; 4.64769; 148.33232045557
74.31; 4.6950541; 153.11168290907
75.33; 4.7490706; 157.94603184731
76.35; 4.8112888; 162.84371622905
77.36; 4.8799938; 167.81133928826
78.38; 4.9504789; 172.85071322492
79.40; 5.0164597; 177.95725275949
80.42; 5.0722247; 183.12055866772
81.44; 5.1148661; 188.32727161963
82.45; 5.1458983; 193.5655740138
83.47; 5.1717652; 198.83020777499
84.49; 5.2030636; 204.12670199704
85.51; 5.2526645; 209.4736878446
86.53; 5.3331762; 214.90263106251
87.54; 5.4543113; 220.4548846053
88.56; 5.6206892; 226.17650361972
89.58; 5.8304651; 232.11166547661
90.60; 6.0750004; 238.29575371825
91.62; 6.3396086; 244.74920169893
92.63; 6.6052666; 251.47307805805
93.65; 6.8510597; 258.44716118153
94.67; 7.0570322; 265.63091539129
95.69; 7.2070397; 272.96737079025
96.71; 7.2911637; 280.38946078918
97.72; 7.3072742; 287.82795060866
98.74; 7.2614358; 295.21977889235
99.76; 7.1670354; 302.51551161073
100.78; 7.0427427; 309.68471973483
101.80; 6.9096395; 316.71843461886
102.81; 6.7880207; 323.62834677822
103.83; 6.6944354; 330.44299317337
104.85; 6.6394923; 337.20170982883
105.87; 6.6268031; 343.94750938312
106.89; 6.6532289; 350.7202093513
107.90; 6.7103539; 357.55106006466
108.92; 6.7868836; 364.45981471777
109.94; 6.8714908; 371.45469582144
110.96; 6.955526; 378.53512117736
111.98; 7.0350145; 385.6964623296
112.99; 7.1114765; 392.93563856636
114.01; 7.1913416; 400.25611395873
115.03; 7.2840304; 407.67094257093
116.05; 7.3991037; 415.20291082335
117.07; 7.5431232; 422.88148475686
118.08; 7.7169775; 430.73703488609
119.10; 7.9143404; 438.79349184602
120.12; 8.1216737; 447.06100516488
121.14; 8.3198247; 455.530227653
122.15; 8.4868991; 464.16952474509
123.17; 8.6018219; 472.92580828337
124.19; 8.6478807; 481.72897771207
125.21; 8.615599; 490.49928572553
126.23; 8.5044552; 499.15645418547
127.24; 8.3231941; 507.62910664165
128.26; 8.0887006; 515.86305481079
129.28; 7.8236067; 523.82714881998
130.30; 7.5529715; 531.51574792248
131.32; 7.3005311; 538.94737353665
132.33; 7.0851447; 546.15974515285
133.35; 6.9181312; 553.20210416733
134.37; 6.802118; 560.12636672374
135.39; 6.7317781; 566.97902638238
136.41; 6.6963955; 573.79566803793
137.42; 6.6836786; 580.5993644688
138.44; 6.6837971; 587.40318152439
139.46; 6.6924238; 594.21578012345
140.48; 6.7117617; 601.04806386739
141.50; 6.7491118; 607.91836845165
142.51; 6.8133383; 614.85405283451
143.53; 6.9103469; 621.88848779511
144.55; 7.0391204; 629.05400859491
145.57; 7.1897627; 636.37287672689
146.59; 7.3443907; 643.849149524
147.60; 7.4807744; 651.46425507181
148.62; 7.5776933; 659.1780198746
149.64; 7.6203907; 666.93524878546
150.66; 7.6044753; 674.67627646792
151.68; 7.5371427; 682.34876248464
152.69; 7.4354608; 689.91774077257
153.71; 7.3223503; 697.37157743427
154.73; 7.221488; 704.72274055971
155.75; 7.1524942; 712.0036710229
156.77; 7.1274625; 719.25912024406
157.78; 7.149341; 726.53684088877
158.80; 7.2121392; 733.87848741691
159.82; 7.3025898; 741.31220869403
160.84; 7.4028098; 748.84794964011
161.86; 7.4935734; 756.4760840302
162.87; 7.5578725; 764.16967210938
163.89; 7.584382; 771.89024567885
164.91; 7.5702574; 779.59644104337
165.93; 7.5225136; 787.25403531748
166.94; 7.4572607; 794.8452049563
167.96; 7.3964512; 802.37447315456
168.98; 7.3625008; 809.86918128025
170.00; 7.3719687; 817.3735273125
171.02; 7.4300855; 824.93703372156
172.03; 7.5279728; 832.60018516597
173.05; 7.6437737; 840.38121697292
174.07; 7.7477382; 848.26808014994
175.09; 7.8099716; 856.21829426381
176.11; 7.8085612; 864.16707264386
177.12; 7.7355506; 872.04152938733
178.14; 7.5988797; 879.77686100538
179.16; 7.4197386; 887.32983468589
180.18; 7.2263211; 894.68591776782
181.20; 7.0461331; 901.85857720331
182.21; 6.8993857; 908.88185414716
183.23; 6.7954681; 915.79934742441
184.25; 6.7332745; 922.65353035234
185.27; 6.7047568; 929.4786834986
186.29; 6.7000073; 936.29900184652
187.30; 6.7118309; 943.13135603782
188.32; 6.7381991; 949.99055199053
189.34; 6.7819629; 956.89429752812
190.36; 6.8483002; 963.86557157038
191.38; 6.9411739; 970.93138710731
192.39; 7.0602943; 978.11846205694
193.41; 7.1997219; 985.44746826164
194.43; 7.3485165; 992.92794094972
195.45; 7.4930592; 1000.5555518534
196.47; 7.6201445; 1008.3125301672
197.48; 7.7198099; 1016.170963507
198.50; 7.7871138; 1024.0979093627
199.52; 7.8225413; 1032.0609188343
200.54; 7.8311892; 1040.0327315359
201.56; 7.821211; 1047.9943868254
202.57; 7.8020916; 1055.9365794496
203.59; 7.7832151; 1063.8595565873
204.61; 7.7729492; 1071.7720834226
205.63; 7.7782196; 1079.6899753062
206.65; 7.8043554; 1087.6344722918
207.66; 7.8549131; 1095.6304349008
208.68; 7.9312485; 1103.7041036594
209.70; 8.0317787; 1111.8801078019
210.72; 8.1511222; 1120.1775985141
211.74; 8.2795311; 1128.6058039248
212.75; 8.4031405; 1137.1598383663
213.77; 8.5054683; 1145.8180380913
214.79; 8.5702647; 1154.5421977035
215.81; 8.5853054; 1163.2816681741
216.82; 8.5462062; 1171.9813372679
217.84; 8.4590251; 1180.5922598476
218.86; 8.3405174; 1189.082546651
219.88; 8.2154588; 1197.4455291689
220.90; 8.1113605; 1205.7025440925
221.91; 8.0518429; 1213.898972751
222.93; 8.0505678; 1222.0941033773
223.95; 8.1076419; 1230.3473330168
224.97; 8.2097323; 1238.7044862805
225.99; 8.3339548; 1247.1880925955
227.00; 8.4543405; 1255.7942464523
228.02; 8.5488209; 1264.4965772803
229.04; 8.6045407; 1273.2556284519
230.06; 8.6199834; 1282.0303996043
231.08; 8.6035929; 1290.7884858748
232.09; 8.5698301; 1299.5122031293
233.11; 8.5344073; 1308.1998614885
234.13; 8.5104891; 1316.8631721889
235.15; 8.5069697; 1325.5229002659
236.17; 8.5288556; 1334.2049072084
237.18; 8.5788172; 1342.9377729497
238.20; 8.6585471; 1351.7518002335
239.22; 8.7688602; 1360.6781215575
240.24; 8.9083311; 1369.7464181764
241.26; 9.0712452; 1378.9805543941
242.27; 9.2462673; 1388.3928554611
243.29; 9.4171427; 1397.9791003327
244.31; 9.5659597; 1407.7168345355
245.33; 9.6783096; 1417.5689360883
246.35; 9.7486338; 1427.4926245826
247.36; 9.7836221; 1437.4519296831
248.38; 9.8019773; 1447.4299196468
249.40; 9.8300634; 1457.4365000011
250.42; 9.8944675; 1467.508640985
251.44; 10.013735; 1477.7021910974
252.45; 10.191982; 1488.0771889734
253.47; 10.416563; 1498.6808007157
254.49; 10.66064; 1509.5328725447
255.51; 10.889863; 1520.6182834695
256.53; 11.071023; 1531.8881066992
257.54; 11.179967; 1543.2688302662
258.56; 11.206459; 1554.6765215299
259.58; 11.154815; 1566.0316415877
260.60; 11.040657; 1577.2705537635
261.61; 10.88537; 1588.3513902054
262.63; 10.710442; 1599.2541575381
263.65; 10.533611; 1609.976918987
264.67; 10.367792; 1620.5308837928
265.69; 10.222524; 1630.9369717695
266.70; 10.106653; 1641.2251079099
267.72; 10.03052; 1651.4357448106
268.74; 10.006243; 1661.621668229
269.76; 10.045574; 1671.8476286321
270.78; 10.155997; 1682.1859950575
271.79; 10.336606; 1692.7082139246
272.81; 10.575641; 1703.4737602137
273.83; 10.851115; 1714.5197270327
274.85; 11.134912; 1725.8545864585
275.87; 11.39944; 1737.4587248601
276.88; 11.62488; 1749.2923508927
277.90; 11.804625; 1761.3089497636
278.92; 11.946979; 1773.4704588336
279.94; 12.072264; 1785.7595029326
280.96; 12.206026; 1798.1847111655
281.97; 12.370338; 1810.7771814783
282.99; 12.575924; 1823.5789292394
284.01; 12.817654; 1836.6267482487
285.03; 13.074929; 1849.9364615672
286.05; 13.316923; 1863.4925144862
287.06; 13.511119; 1877.2462504666
288.08; 13.63248; 1891.1235271297
289.10; 13.670438; 1905.0394432557
290.12; 13.631571; 1918.9157942885
291.14; 13.537261; 1932.6961419286
292.15; 13.417216; 1946.3542885929
293.17; 13.301031; 1959.8941646447
294.19; 13.210528; 1973.3419125384
295.21; 13.155223; 1986.7333618671
296.23; 13.132171; 2000.1013454279
297.24; 13.129906; 2013.4670230324
298.26; 13.134817; 2026.8376999814
299.28; 13.137562; 2040.2111707247
300.30; 13.137192; 2053.5842655126
301.32; 13.141613; 2066.9618606986
302.33; 13.164368; 2080.3626193619
303.35; 13.21913; 2093.8191235513
304.37; 13.314092; 2107.3722946028
305.39; 13.448425; 2121.0622111224
306.41; 13.61213; 2134.9187721397
307.42; 13.78922; 2148.9556027592
308.44; 13.962867; 2163.1691987317
309.46; 14.120385; 2177.5431413835
310.48; 14.256062; 2192.0551968813
311.49; 14.370858; 2206.6841106639
312.51; 14.469433; 2221.4133695768
313.53; 14.556196; 2236.2309485351
314.55; 14.632609; 2251.1263126518
315.57; 14.697418; 2266.0876497026
316.58; 14.750054; 2281.1025686737
317.60; 14.795758; 2296.1640123109
318.62; 14.849709; 2311.280375734
319.64; 14.937334; 2326.4859366941
320.66; 15.089157; 2341.8460472168
321.67; 15.33078; 2357.452119524
322.69; 15.670911; 2373.4044311261
323.71; 16.091937; 2389.7853284839
324.73; 16.547429; 2406.6298967678
325.75; 16.969148; 2423.9037567652
326.76; 17.282938; 2441.4970418131
327.78; 17.429564; 2459.2395856157
328.80; 17.384232; 2476.9359838712
329.82; 17.168253; 2494.4125245378
330.84; 16.848272; 2511.5633382995
331.85; 16.522238; 2528.3822632019
332.87; 16.295492; 2544.9703711366
333.89; 16.253684; 2561.5159197966
334.91; 16.440403; 2578.2515402699
335.93; 16.846114; 2595.4001572039
336.94; 17.411498; 2613.124310435
337.96; 18.043903; 2631.4922246088
338.98; 18.641703; 2650.4686743333
340.00; 19.119231; 2669.9312265899
341.02; 19.425221; 2689.7052634433
342.03; 19.55022; 2709.6065440553
343.05; 19.522148; 2729.4792480611
344.07; 19.392917; 2749.2204007835
345.09; 19.221453; 2768.7870102042
346.11; 19.058862; 2788.1881089426
347.12; 18.939959; 2807.4681695337
348.14; 18.882505; 2826.6897450725
349.16; 18.892516; 2845.921510883
350.18; 18.971916; 2865.2341026142
351.20; 19.124413; 2884.7019301361
352.21; 19.356704; 2904.4062193335
353.23; 19.674512; 2924.4340239258
354.25; 20.075463; 2944.8699791423
355.27; 20.542379; 2965.7812343053
356.28; 21.040685; 2987.1997434306
357.30; 21.522107; 3009.1083194171
358.32; 21.934381; 3031.4365731322
359.34; 22.234233; 3054.0700633488
360.36; 22.399393; 3076.8716786763
361.37; 22.435523; 3099.7100728218
362.39; 22.375604; 3122.4874721423
363.41; 22.271905; 3145.1593106309
364.43; 22.183191; 3167.740842326
365.45; 22.161286; 3190.300075677
366.46; 22.241015; 3212.9404694466
367.48; 22.435992; 3235.7793408852
368.50; 22.740405; 3258.9280919462
369.52; 23.134864; 3282.4783847709
370.54; 23.593327; 3306.4953733657
371.55; 24.088518; 3331.016445036
372.57; 24.594666; 3356.0527539583
373.59; 25.088188; 3381.5914463039
374.61; 25.54806; 3407.5982688856
375.63; 25.957628; 3434.022014087
376.64; 26.308367; 3460.8027968572
377.66; 26.604412; 3487.8849403611
378.68; 26.865331; 3515.23268798
379.70; 27.12455; 3542.84430908
380.72; 27.422208; 3570.7589332125
381.73; 27.79364; 3599.0516592085
382.75; 28.257046; 3627.8161130207
383.77; 28.805105; 3657.1384672109
384.79; 29.404554; 3687.0710338274
385.81; 30.005183; 3717.6150158183
386.82; 30.556177; 3748.7198857761
387.84; 31.024629; 3780.3016189281
388.86; 31.409804; 3812.2754437254
389.88; 31.747819; 3844.5933531565
390.90; 32.104622; 3877.2744729671
391.91; 32.559279; 3910.418413733
392.93; 33.182952; 3944.1972264927
393.95; 34.020357; 3978.8284819932
394.97; 35.079355; 4014.537751382
395.99; 36.331231; 4051.5213764251
397.00; 37.72049; 4089.9192075539
398.02; 39.180056; 4129.8028140197
399.04; 40.646749; 4171.1794502362
400.06; 42.072929; 4214.0078768436
401.07; 43.432528; 4258.2203159478
402.09; 44.722061; 4303.7454443229
403.11; 45.958621; 4350.5293375908
404.13; 47.176659; 4398.5531405886
405.15; 48.424124; 4447.8468095589
406.16; 49.757122; 4498.4974123109
407.18; 51.231737; 4550.6491102238
408.20; 52.892638; 4604.4915331789
409.22; 54.760052; 4660.2349032437
410.24; 56.818794; 4718.0739832288
411.25; 59.013757; 4778.1474414214
412.27; 61.255055; 4840.5024443049
413.29; 63.432818; 4905.0743155775
414.31; 65.437888; 4971.6872619934
415.33; 67.18193; 5040.0755678229
416.34; 68.610299; 5109.9178916372
417.36; 69.703821; 5180.873373191
418.38; 70.470396; 5252.6091956249
419.40; 70.932069; 5324.8149810735
420.42; 71.115557; 5397.2075491364
421.43; 71.052877; 5469.5363123427
422.45; 70.79375; 5541.6012944835
423.47; 70.424848; 5613.2907511726
424.49; 70.08567; 5684.6349389511
425.51; 69.969403; 5755.8607723475
426.52; 70.301092; 5827.4242501999
427.54; 71.293543; 5899.9980002411
428.56; 73.091007; 5974.4014911584
429.58; 75.717751; 6051.4788944638
430.60; 79.050091; 6131.9484756398
431.61; 82.825013; 6216.2607648741
432.63; 86.687678; 6304.5050805561
433.65; 90.267459; 6396.3934587803
434.67; 93.262345; 6491.330502012
435.69; 95.508131; 6588.553658376
436.70; 97.013216; 6687.3089257103
437.72; 97.95055; 6787.0183593078
438.74; 98.611478; 6887.4005882235
439.76; 99.337226; 6988.5215977133
440.78; 100.44893; 7090.7742733197
441.79; 102.19473; 7194.8041035679
442.81; 104.72422; 7301.4088422897
443.83; 108.08949; 7411.4392749141
444.85; 112.26317; 7525.7183401525
445.87; 117.15986; 7644.9820174626
446.88; 122.64969; 7769.8341068786
447.90; 128.56069; 7900.7033439
448.92; 134.67503; 8037.7967140736
449.94; 140.73087; 8181.0546630888
450.95; 146.44196; 8330.1262544511
451.97; 151.54102; 8484.3884775901
452.99; 155.84218; 8643.0290888096
454.01; 159.30627; 8805.1959964129
455.03; 162.08608; 8970.1926292705
456.04; 164.52905; 9137.6761026699
457.06; 167.12538; 9307.8025264557
458.08; 170.40583; 9481.2683039945
459.10; 174.81185; 9659.2192214087
460.12; 180.57363; 9843.0353852877
461.13; 187.63423; 10034.038939746
462.15; 195.64783; 10233.199984806
463.17; 204.05915; 10440.923396667
464.19; 212.24612; 10656.980785211
465.21; 219.68596; 10880.611607789
466.22; 226.09573; 11110.767307275
467.24; 231.50389; 11346.428279552
468.26; 236.23009; 11586.900319277
469.28; 240.7793; 11832.003254128
470.30; 245.68341; 12082.098358993
471.31; 251.3403; 12337.9519402
472.33; 257.90043; 12600.483452169
473.35; 265.23468; 12870.480912475
474.37; 272.99038; 13148.373335724
475.39; 280.714; 13434.128075638
476.40; 287.99907; 13727.298703691
477.42; 294.61205; 14027.201061542
478.44; 300.55886; 14333.157007854
479.46; 306.07512; 14644.728276616
480.48; 311.54747; 14961.870154775
481.49; 317.39229; 15284.961808865
482.51; 323.9286; 15614.707144509
483.53; 331.27994; 15951.935830231
484.55; 339.33045; 16297.359590405
485.57; 347.7453; 16651.349299665
486.58; 356.05033; 17013.793167475
487.60; 363.75258; 17384.077600064
488.62; 370.4737; 17761.203837205
489.64; 376.06301; 18144.019751135
490.66; 380.65789; 18531.513057975
491.67; 384.6666; 18923.087056847
492.69; 388.66504; 19318.731296392
493.71; 393.222; 19719.014325608
494.73; 398.69241; 20124.865997833
495.74; 405.03733; 20537.176525977
496.76; 411.73351; 20956.303473238
497.78; 417.81883; 21381.625017463
498.80; 422.08363; 21811.287937866
499.82; 423.37054; 22242.260875754
500.83; 420.9033; 22670.722268183
501.85; 414.54349; 23092.70965052
502.87; 404.88575; 23504.865869133
503.89; 393.14597; 23905.07150244
504.91; 380.8617; 24292.772277344
505.92; 369.48731; 24668.894413751
506.94; 360.00603; 25035.365017893
507.96; 352.68015; 25394.378190358
508.98; 347.01839; 25747.627935549
510.00; 341.96913; 26095.737751368
511.01; 336.27427; 26438.050447786
512.03; 328.86765; 26772.823527895
513.05; 319.19162; 27097.74682407
514.07; 307.33854; 27410.604193508
515.09; 293.98719; 27709.870461787
516.10; 280.17306; 27995.074544553
517.12; 266.98169; 28266.850385418
518.14; 255.26875; 28526.702956636
519.16; 245.48792; 28776.599063915
520.18; 237.6599; 29018.526589806
521.19; 231.46362; 29254.146565677
522.21; 226.39401; 29484.605894895
523.23; 221.92124; 29710.512142377
524.25; 217.60262; 29932.022221797
525.27; 213.12981; 30148.979169408
526.28; 208.32446; 30361.044483003
527.30; 203.11179; 30567.803519029
528.32; 197.4992; 30768.849179251
529.34; 191.57117; 30963.860360621
530.36; 185.49201; 31152.683218579
531.37; 179.49701; 31335.403433781
532.39; 173.85541; 31512.380743392
533.41; 168.80363; 31684.215549551
534.43; 164.46667; 31851.635518868
535.45; 160.79818; 32015.321126961
536.46; 157.56839; 32175.718947194
537.48; 154.41359; 32332.905315628
538.50; 150.93684; 32486.55250222
539.52; 146.82791; 32636.016982725
540.54; 141.96083; 32780.526982871
541.55; 136.43401; 32919.410914543
542.57; 130.53881; 33052.293790753
543.59; 124.66833; 33179.200774208
544.61; 119.19935; 33300.540571716
545.62; 114.38845; 33416.983077403
546.64; 110.31564; 33529.279640475
547.66; 106.88963; 33638.088674525
548.68; 103.90595; 33743.860447981
549.70; 101.13178; 33846.808238486
550.71; 98.385186; 33946.960112828
551.73; 95.582487; 34044.258959547
552.75; 92.742444; 34138.66676565
553.77; 89.952555; 34230.234584804
554.79; 87.315315; 34319.117807465
555.80; 84.896657; 34405.538941329
556.82; 82.694748; 34489.718626027
557.84; 80.637753; 34571.804378432
558.86; 78.608319; 34651.824255229
559.88; 76.484137; 34729.681806225
560.89; 74.180313; 34805.194163661
561.91; 71.680489; 34878.161807997
562.93; 69.048304; 34948.450001872
563.95; 66.416937; 35016.059578081
564.97; 63.960235; 35081.168337612
565.98; 61.853143; 35144.132168191
567.00; 60.231235; 35205.44496606
568.02; 59.158974; 35265.666248895
569.04; 58.614093; 35325.332866321
570.06; 58.491567; 35384.874757099
571.07; 58.625859; 35444.553352014
572.09; 58.825518; 35504.435191387
573.11; 58.911071; 35564.404119974
574.13; 58.746568; 35624.205591447
575.15; 58.257346; 35683.509056107
576.16; 57.431053; 35741.971390167
577.18; 56.304204; 35799.286640271
578.20; 54.94075; 35855.213952563
579.22; 53.410854; 35909.583897063
580.24; 51.77678; 35962.29042504
581.25; 50.089132; 36013.278999923
582.27; 48.392195; 36062.5401665
583.29; 46.733568; 36110.112921624
