#Wavenumber (cm^-1);   Spectrum at 400.00 K (cm*km*mol^-1); Spectrum (normalised);   Integral (km*mol^-1)
0; 0.0057870854; 0.001660691403324; 0.005891003180458
1.02; 0.0059603958; 0.001710425435482; 0.011958428943263
2.04; 0.0064703609; 0.001856767609311; 0.018544977121799
3.05; 0.0072886486; 0.002091587601571; 0.025964506860747
4.07; 0.0083728232; 0.002402707848374; 0.034487679577282
5.09; 0.0096721332; 0.002775564441652; 0.044333493779726
6.11; 0.01113333; 0.003194876892843; 0.055666742826554
7.13; 0.012705209; 0.003645951270001; 0.068600097233979
8.14; 0.014341215; 0.004115427856607; 0.083198834828683
9.16; 0.016000283; 0.004591522431802; 0.099486432865083
10.18; 0.01764686; 0.005064032526229; 0.1174501753371
11.2; 0.019251308; 0.005524453068957; 0.13704717627471
12.22; 0.020791636; 0.005966473410993; 0.15821216410815
13.23; 0.022256643; 0.006386879256517; 0.18086846613818
14.25; 0.023649503; 0.006786581432682; 0.20494263919048
15.27; 0.024989962; 0.007171246351885; 0.23038134248466
16.29; 0.026313178; 0.007550963132277; 0.25716702250267
17.31; 0.027663918; 0.007938578339428; 0.28532769746722
18.32; 0.029086399; 0.008346780708118; 0.31493639636655
19.34; 0.030611855; 0.00878453330554; 0.34609794346841
20.36; 0.03224738; 0.009253871861944; 0.37892438454922
21.38; 0.033969961; 0.009748192450029; 0.41350433877314
22.4; 0.035728571; 0.010252852102849; 0.44987448255471
23.41; 0.037454897; 0.010748247375145; 0.48800195149688
24.43; 0.039080406; 0.011214711689345; 0.52778411876241
25.45; 0.040555085; 0.011637893061087; 0.56906744542793
26.47; 0.041862192; 0.012012987121065; 0.6116813507118
27.48; 0.043024346; 0.012346484732339; 0.65547827807876
28.5; 0.044098926; 0.012654851664022; 0.70036908197587
29.52; 0.045164262; 0.012960565890539; 0.74634435188285
30.54; 0.046301066; 0.013286788937129; 0.79347683886883
31.56; 0.04757495; 0.013652349156377; 0.84190608451499
32.57; 0.049025025; 0.014068470039383; 0.8918114444556
33.59; 0.050660904; 0.014537910181423; 0.94338205827536
34.61; 0.05246699; 0.015056193788205; 0.99679118966998
35.63; 0.054410249; 0.015613841255397; 1.0521784752888
36.65; 0.056446826; 0.016198267729578; 1.1096389082075
37.66; 0.058524326; 0.016794437675576; 1.1692141469446
38.68; 0.060579659; 0.017384246466728; 1.2308816252673
39.7; 0.062535561; 0.01794552203338; 1.2945401275016
40.72; 0.064300773; 0.018452076229633; 1.3599955400766
41.74; 0.06577816; 0.018876034702802; 1.4269548680902
42.75; 0.066881951; 0.019192784171328; 1.4950378079356
43.77; 0.067560885; 0.019387614518436; 1.5638118734069
44.79; 0.06782017; 0.019462020258242; 1.6328498797637
45.81; 0.067733777; 0.019437228484406; 1.7017999418145
46.83; 0.067440478; 0.019353061914494; 1.7704514386335
47.84; 0.067121886; 0.019261637136908; 1.8387786225036
48.86; 0.066966845; 0.019217145784515; 1.9069479811957
49.88; 0.067131576; 0.019264417828497; 1.9752850289112
50.9; 0.067706951; 0.019429530359269; 2.0442077828613
51.92; 0.06870231; 0.019715163630643; 2.1141437698053
52.93; 0.070050003; 0.020101904455208; 2.185451650548
53.95; 0.071628201; 0.020554792164683; 2.2583660685442
54.97; 0.073294029; 0.021032826623793; 2.3329762275338
55.99; 0.074916603; 0.021498448695494; 2.4092380962897
57.01; 0.076400859; 0.021924378331772; 2.4870108741894
58.02; 0.07769741; 0.022296443188405; 2.5661034851579
59.04; 0.078799053; 0.022612576255947; 2.6463175207135
60.06; 0.079728914; 0.022879413888754; 2.7274781144745
61.08; 0.080526871; 0.023108399680137; 2.8094509942696
62.1; 0.08123958; 0.023312922272697; 2.8921493813732
63.11; 0.081916089; 0.023507056729495; 2.9755364254546
64.13; 0.082607403; 0.023705439704247; 3.0596271965754
65.15; 0.083366182; 0.023923182777871; 3.1444903720396
66.17; 0.084242962; 0.024174788017463; 3.2302460717618
67.19; 0.085277596; 0.024471691842209; 3.3170549849545
68.2; 0.08648787; 0.024818998212954; 3.4050959041919
69.22; 0.087859697; 0.025212664652669; 3.4945332842571
70.24; 0.089343805; 0.025638551818116; 3.5854814225201
71.26; 0.090861912; 0.026074195509192; 3.6779749275702
72.27; 0.092321936; 0.026493171407741; 3.7719546747056
73.29; 0.093638192; 0.026870890911202; 3.867274313828
74.31; 0.094750314; 0.027190031085779; 3.9637260443417
75.33; 0.095634866; 0.027443866617944; 4.0610782110747
76.35; 0.096306097; 0.027636486473069; 4.1591136625166
77.36; 0.096806094; 0.02777996815032; 4.2576580891618
78.38; 0.097188254; 0.027889634723876; 4.3565915375899
79.4; 0.097500058; 0.027979111582525; 4.4558423898209
80.42; 0.097770963; 0.028056851856518; 4.5553690113472
81.44; 0.098008979; 0.028125154136117; 4.6551379225557
82.45; 0.098206241; 0.028181761440996; 4.7551076382342
83.47; 0.098350745; 0.028223229042381; 4.8552244527815
84.49; 0.0984396; 0.028248727324235; 4.9554317176299
85.51; 0.09848907; 0.028262923486559; 5.0556893410696
86.53; 0.098538125; 0.028277000558377; 5.155996900694
87.54; 0.098644484; 0.028307521876926; 5.2564127290065
88.56; 0.098874372; 0.028373491704385; 5.3570625733193
89.58; 0.09928875; 0.028492403718769; 5.4581342368288
90.6; 0.099929359; 0.028676236129328; 5.5598580125287
91.62; 0.10080768; 0.028928283582102; 5.6624758811936
92.63; 0.10189917; 0.029241503093225; 5.7662048354027
93.65; 0.10314411; 0.029598757395305; 5.871201086506
94.67; 0.10445544; 0.0299750633088; 5.9775322219173
95.69; 0.10573267; 0.030341583713194; 6.0851635141797
96.71; 0.10687971; 0.030670744134305; 6.1939624420586
97.72; 0.1078235; 0.030941578903659; 6.3037221156281
98.74; 0.10852915; 0.031144075809745; 6.4142001106634
99.76; 0.10900755; 0.031281359902244; 6.5251650928862
100.78; 0.10931277; 0.03136894738283; 6.6364407746075
101.8; 0.10952881; 0.031430943317912; 6.7479363785832
102.81; 0.1097484; 0.031493957979015; 6.8596555089963
103.83; 0.11004914; 0.03158025985606; 6.9716807873857
104.85; 0.11047382; 0.03170212818466; 7.0841383702059
105.87; 0.11102044; 0.031858989034663; 7.1971523823402
106.89; 0.11164509; 0.032038241769569; 7.3108022614386
107.9; 0.11227638; 0.032219399952582; 7.4250947693003
108.92; 0.11283627; 0.032380068829148; 7.5399572225039
109.94; 0.11326008; 0.032501687498131; 7.6552510954356
110.96; 0.11350893; 0.032573098757367; 7.7707982871046
111.98; 0.11357101; 0.032590913549303; 7.8864086792615
112.99; 0.11345271; 0.032556965580778; 8.0018986394665
114.01; 0.11316475; 0.032474331117408; 8.1170954672838
115.03; 0.11271085; 0.032344077669279; 8.231830248542
116.05; 0.11208503; 0.032164489185233; 8.345927968022
117.07; 0.11127992; 0.031933450732659; 8.4592061277437
118.08; 0.11030335; 0.031653209248104; 8.5714901800528
119.1; 0.10919571; 0.031335355250999; 8.6826467049224
120.12; 0.10803958; 0.031003586317345; 8.7926263309447
121.14; 0.10695479; 0.030692289472233; 8.9015016959493
122.15; 0.10607785; 0.030440638318229; 9.0094843677818
123.17; 0.10553031; 0.030283513460355; 9.1169096661757
124.19; 0.10538614; 0.030242141705306; 9.224188213604
125.21; 0.10564885; 0.030317530300499; 9.3317341849691
126.23; 0.10624631; 0.030488980454981; 9.4398883485122
127.24; 0.10704536; 0.030718279899193; 9.5488559072365
128.26; 0.107881; 0.030958079395546; 9.6586741067985
129.28; 0.10859054; 0.031161692595779; 9.769214595527
130.3; 0.10904194; 0.031291228631217; 9.8802145817111
131.32; 0.10914865; 0.031321850674509; 9.9913231986832
132.33; 0.10886976; 0.031241818984381; 10.10214791728
133.35; 0.10819959; 0.031049503599202; 10.212290435302
134.37; 0.10715506; 0.030749759968062; 10.32136966496
135.39; 0.10576825; 0.030351793930608; 10.429037183582
136.41; 0.10408783; 0.029869572077104; 10.534994099593
137.42; 0.10218697; 0.029324091642182; 10.639016023473
138.44; 0.10017105; 0.028745593005582; 10.740985833238
139.46; 0.098176847; 0.028173326389544; 10.840925627189
140.48; 0.096357987; 0.027651377090878; 10.939013899596
141.5; 0.094857424; 0.027220767915101; 11.035574663767
142.51; 0.093773946; 0.026909847568169; 11.131032493933
143.53; 0.09313395; 0.026726191067202; 11.225838836249
144.55; 0.092879371; 0.026653135785044; 11.320386028038
145.57; 0.092877857; 0.026652701319919; 11.414931678941
146.59; 0.092953764; 0.026674483977965; 11.509554599494
147.6; 0.092931139; 0.026667991393114; 11.604154488638
148.62; 0.09267559; 0.026594657754832; 11.69849424026
149.64; 0.092122361; 0.02643590035264; 11.792270828947
150.66; 0.091282904; 0.02619500551059; 11.885192885998
151.68; 0.090229729; 0.025892781066366; 11.977042856429
152.69; 0.089066462; 0.025558964062962; 12.067708671811
153.71; 0.087894189; 0.025222562652081; 12.157181163494
154.73; 0.086785075; 0.024904285668453; 12.245524625341
155.75; 0.0857703; 0.024613080683158; 12.332835089637
156.77; 0.084843354; 0.024347079553549; 12.419201963117
157.78; 0.083974243; 0.024097675049127; 12.504684119087
158.8; 0.083127023; 0.02385455249719; 12.589303841192
159.82; 0.082273301; 0.023609564098327; 12.67305451117
160.84; 0.081397297; 0.023358181543635; 12.755913447101
161.86; 0.080492273; 0.023098471262428; 12.837851107241
162.87; 0.079551818; 0.022828593521603; 12.918831425021
163.89; 0.078561273; 0.022544341700106; 12.998803410925
164.91; 0.077494018; 0.022238076787607; 13.077688976795
165.93; 0.076314991; 0.021899737214601; 13.155374344678
166.94; 0.074990715; 0.021519716251228; 13.231711656667
167.96; 0.073502464; 0.021092640189471; 13.306533993754
168.98; 0.071857972; 0.020620728417228; 13.379682308795
170; 0.070097406; 0.020115507460719; 13.45103844335
171.02; 0.068291082; 0.019597155556249; 13.520555818441
172.03; 0.066528841; 0.019091453933238; 13.588279307803
173.05; 0.06490343; 0.018625017741616; 13.654348198408
174.07; 0.06349201; 0.018219989493635; 13.718980324768
175.09; 0.062340524; 0.017889553225795; 13.782440288064
176.11; 0.061455001; 0.017635439050541; 13.844998827517
177.12; 0.060802086; 0.017448075247753; 13.906892727698
178.14; 0.060318535; 0.017309312998146; 13.968294393929
179.16; 0.059926881; 0.017196921978156; 14.029297372408
180.18; 0.05955264; 0.017089527881039; 14.089919390146
181.2; 0.059138039; 0.016970551873443; 14.150119362298
182.21; 0.058648443; 0.01683005491995; 14.209820946847
183.23; 0.058070289; 0.016664144913231; 14.268933994762
184.25; 0.057402395; 0.016472482660566; 14.32736715577
185.27; 0.056644978; 0.016255130433375; 14.385029298827
186.29; 0.055791477; 0.016010205453794; 14.441822615169
187.3; 0.054827049; 0.015733448299195; 14.497634185309
188.32; 0.05373463; 0.015419962197517; 14.552333719558
189.34; 0.052506037; 0.015067398913539; 14.605782599134
190.36; 0.051153056; 0.014679140617651; 14.657854202604
191.38; 0.049713027; 0.014265902585802; 14.70845991872
192.39; 0.048245409; 0.013844747474463; 14.757571663653
193.41; 0.046819464; 0.013435551058749; 14.805231858087
194.43; 0.045497041; 0.013056061841663; 14.851545882609
195.45; 0.044316861; 0.012717391397923; 14.896658534637
196.47; 0.043286518; 0.012421718940321; 14.940722341932
197.48; 0.042385621; 0.012163192963984; 14.98386907495
198.5; 0.041579151; 0.011931764238906; 15.026194856597
199.52; 0.040835961; 0.011718494663856; 15.067764102265
200.54; 0.04014512; 0.011520247423585; 15.108630101998
201.56; 0.0395235; 0.011341864192859; 15.148863319011
202.57; 0.039011295; 0.011194879245957; 15.188575134278
203.59; 0.038656896; 0.011093179109884; 15.22792618633
204.61; 0.038496655; 0.011047195539094; 15.267114119694
205.63; 0.038537159; 0.011058818772544; 15.306343284794
206.65; 0.038746726; 0.011118957182687; 15.345785780258
207.66; 0.039059488; 0.011208708953879; 15.385546653221
208.68; 0.039390907; 0.011303814632499; 15.425644896291
209.7; 0.039659607; 0.011380922148498; 15.466016664677
210.72; 0.039808377; 0.011423613942899; 15.506539874338
211.74; 0.039817747; 0.011426302805663; 15.547072622889
212.75; 0.039708261; 0.01139488414732; 15.587493918913
213.77; 0.039531348; 0.011344116294778; 15.627735125055
214.79; 0.039352297; 0.011292734910903; 15.667794065104
215.81; 0.039231011; 0.01125793006466; 15.707729541919
216.82; 0.039206568; 0.0112509157773; 15.747640136056
217.84; 0.039290105; 0.011274887978878; 15.787635767923
218.86; 0.039467872; 0.011325900899595; 15.827812358352
219.88; 0.039713112; 0.011396276214905; 15.868238592294
220.9; 0.040002777; 0.01147939995373; 15.908959693383
221.91; 0.0403334; 0.011574277208149; 15.950017354379
222.93; 0.040730344; 0.011688186273393; 15.991479086926
223.95; 0.041246208; 0.01183622122551; 16.033465946501
224.97; 0.041947142; 0.012037364804296; 16.07616632683
225.99; 0.042889647; 0.012307830823527; 16.119826136926
227; 0.044094062; 0.012653455865891; 16.164711988946
228.02; 0.045523201; 0.013063568848059; 16.211052642882
229.04; 0.047074487; 0.013508733753401; 16.258972438796
230.06; 0.048590938; 0.01394390223031; 16.308435916568
231.08; 0.049891073; 0.014316995569776; 16.35922287636
232.09; 0.050811529; 0.01458113429604; 16.41094682005
233.11; 0.051251033; 0.014707256594931; 16.46311816024
234.13; 0.051202342; 0.014693283978401; 16.515239935342
235.15; 0.050760915; 0.014566609845669; 16.566912356108
236.17; 0.050105334; 0.014378480993987; 16.617917424226
237.18; 0.049453004; 0.014191285065769; 16.668258448581
238.2; 0.049002715; 0.014062067848531; 16.718141097979
239.22; 0.04888052; 0.014027002151033; 16.767899357621
240.24; 0.049105058; 0.014091436715334; 16.817886187772
241.26; 0.049582904; 0.01422856182918; 16.868359443973
242.27; 0.050135349; 0.014387094250752; 16.919395066324
243.29; 0.050548348; 0.014505610540296; 16.970851103785
244.31; 0.050630291; 0.014529125319543; 17.022390555329
245.33; 0.050260345; 0.014422963737429; 17.073553418153
246.35; 0.049413727; 0.014180013938468; 17.123854459871
247.36; 0.048158171; 0.013819713215138; 17.172877400206
248.38; 0.046625222; 0.0133798103884; 17.220339864262
249.4; 0.044967526; 0.01290410952929; 17.266114865287
250.42; 0.043316722; 0.012430386433485; 17.310209418695
251.44; 0.041754837; 0.011982179985299; 17.352714040768
252.45; 0.040306349; 0.01156651451587; 17.39374416488
253.47; 0.038950475; 0.011177426030017; 17.433394068023
254.49; 0.037646595; 0.01080325800634; 17.471716677467
255.51; 0.036362151; 0.010434667435886; 17.508731777645
256.53; 0.035092806; 0.010070409751119; 17.544454739409
257.54; 0.033868536; 0.009719087017166; 17.578931447073
258.56; 0.032744928; 0.009396650761723; 17.612264370674
259.58; 0.031784215; 0.009120959682382; 17.644619329995
260.6; 0.031033649; 0.00890557345293; 17.676210245739
261.61; 0.030508973; 0.008755009764561; 17.707267063355
262.63; 0.030188212; 0.008662962559724; 17.737997360682
263.65; 0.03001703; 0.008613839304034; 17.768553402198
264.67; 0.029922914; 0.008586831298914; 17.799013637431
265.69; 0.029832926; 0.008561007885628; 17.829382268285
266.7; 0.029689246; 0.008519776743466; 17.859604639728
267.72; 0.029458229; 0.008453482932436; 17.889591846028
268.74; 0.029131373; 0.00835968667546; 17.919246326503
269.76; 0.028719463; 0.008241482890884; 17.948481500901
270.78; 0.028243162; 0.008104801138081; 17.97723182106
271.79; 0.027723914; 0.007955795096146; 18.005453568726
272.81; 0.027178258; 0.007799210880476; 18.033119862447
273.83; 0.026616856; 0.007638108112715; 18.060214673543
274.85; 0.026047559; 0.007474739755677; 18.086729964383
275.87; 0.025480352; 0.007311971155648; 18.112667863139
276.88; 0.024931517; 0.007154474678001; 18.138047071581
277.9; 0.02442488; 0.007009087552643; 18.162910545102
278.92; 0.023989345; 0.00688410421814; 18.187330663208
279.94; 0.023653442; 0.006787711788118; 18.21140884613
280.96; 0.023438768; 0.00672610784733; 18.235268500446
281.97; 0.023354632; 0.006701963753671; 18.259042508522
282.99; 0.023395703; 0.006713749696319; 18.28285832469
284.01; 0.023543358; 0.006756121524659; 18.306824446711
285.03; 0.023770114; 0.006821192577499; 18.331021396597
286.05; 0.024045506; 0.00690022046379; 18.355498683851
287.06; 0.024341436; 0.006985142038817; 18.38027721561
288.08; 0.024635438; 0.007069510345177; 18.405355028851
289.1; 0.024911247; 0.007148657895904; 18.430713603307
290.12; 0.02515716; 0.007219226338711; 18.456322506308
291.14; 0.025363457; 0.007278426373055; 18.482141410726
292.15; 0.025520332; 0.007323444019398; 18.508120006964
293.17; 0.025617348; 0.00735128422324; 18.534197362135
294.19; 0.025644606; 0.007359106317289; 18.560302464874
295.21; 0.025594958; 0.007344859075182; 18.58635702797
296.23; 0.025466154; 0.007307896825495; 18.612280473855
297.24; 0.025261867; 0.007249273590954; 18.637995964547
298.26; 0.024991128; 0.007171580953164; 18.663435854056
299.28; 0.024666455; 0.007078411140948; 18.688545241134
300.3; 0.024301587; 0.006973706767492; 18.713283207718
301.32; 0.023909824; 0.006861284468308; 18.737622377163
302.33; 0.023503654; 0.00674472786327; 18.761548082855
303.35; 0.023095551; 0.00662761655474; 18.785058356896
304.37; 0.022699181; 0.00651387220745; 18.808165143296
305.39; 0.02232987; 0.006407892848159; 18.830895986979
306.41; 0.022003424; 0.006314214246863; 18.853294523613
307.42; 0.021733125; 0.006236647873706; 18.875417906534
308.44; 0.021525622; 0.00617710175948; 18.897330060466
309.46; 0.021377206; 0.006134511550717; 18.919091134201
310.48; 0.021272064; 0.006104339468666; 18.9407451775
311.49; 0.021183645; 0.006078966303585; 18.96230921404
312.51; 0.021079279; 0.006049016906433; 18.983767010071
313.53; 0.020927025; 0.006005325325707; 19.005069818708
314.55; 0.020702946; 0.005941022478376; 19.026144524272
315.57; 0.020396763; 0.005853158650422; 19.046907548674
316.58; 0.020014364; 0.005743423492212; 19.067281307151
317.6; 0.019576566; 0.005617790755741; 19.087209406741
318.62; 0.019114641; 0.005485234412875; 19.106667286731
319.64; 0.018663908; 0.005355889783142; 19.125666339746
320.66; 0.018257038; 0.005239132302551; 19.144251216145
321.67; 0.017918498; 0.005141983145623; 19.162491473803
322.69; 0.01766103; 0.00506809882136; 19.180469640354
323.71; 0.017484423; 0.005017418780131; 19.198268028689
324.73; 0.017376391; 0.004986417369009; 19.215956444741
325.75; 0.017315131; 0.004968837888435; 19.233582500998
326.76; 0.017273122; 0.004956782772545; 19.251165794301
327.78; 0.017221728; 0.004942034489414; 19.26869677007
328.8; 0.017136112; 0.004917465687442; 19.286140593104
329.82; 0.016999809; 0.004878351486648; 19.303445665143
330.84; 0.016808072; 0.004823329663815; 19.32055555759
331.85; 0.016569137; 0.004754763663311; 19.337422223639
332.87; 0.016302754; 0.004678321045393; 19.354017723338
333.89; 0.016035987; 0.004601768232886; 19.370341665748
334.91; 0.015796999; 0.004533187023233; 19.386422329484
335.93; 0.01560828; 0.004479031261; 19.402310884715
336.94; 0.015481064; 0.004442524711854; 19.418069940158
337.96; 0.015412535; 0.004422859282141; 19.433759235445
338.98; 0.015386637; 0.004415427460595; 19.449422167452
340; 0.015378355; 0.004413050815833; 19.465076669476
341.02; 0.015360291; 0.004407867078695; 19.480712782888
342.03; 0.015309733; 0.004393358698368; 19.496297430675
343.05; 0.015214349; 0.004365986821531; 19.511784981757
344.07; 0.015075068; 0.004326018038739; 19.527130750042
345.09; 0.014905581; 0.004277381188854; 19.542303988526
346.11; 0.014728843; 0.0042266635552; 19.557297315181
347.12; 0.014571678; 0.004181562688984; 19.572130654732
348.14; 0.014459021; 0.004149234064385; 19.586849313715
349.16; 0.014409222; 0.00413494349055; 19.601517280039
350.18; 0.014431452; 0.004141322724196; 19.616207875613
351.2; 0.014525559; 0.004168328146631; 19.630994267706
352.21; 0.014684075; 0.004213816702665; 19.645942022512
353.23; 0.014895499; 0.004274488006955; 19.661104997436
354.25; 0.015147684; 0.00434685629472; 19.676524685629
355.27; 0.01543023; 0.004427937129166; 19.692231993822
356.28; 0.015735154; 0.004515439668089; 19.708249701707
357.3; 0.016055766; 0.00460744411513; 19.724593778379
358.32; 0.016384405; 0.004701752030838; 19.741272396139
359.34; 0.016710254; 0.004795259313982; 19.75828271371
360.36; 0.017018573; 0.00488373609934; 19.7756068871
361.37; 0.017292352; 0.004962301110962; 19.793209754787
362.39; 0.017516438; 0.005026605967048; 19.811040733091
363.41; 0.017683148; 0.005074445914917; 19.829041414984
364.43; 0.017797385; 0.005107227944338; 19.847158384757
365.45; 0.017879034; 0.005130658355852; 19.865358469496
