#Wavenumber (cm^-1);  Spectrum (K*cm*km*mol^-1); Spectrum (normalised);  Integral (K*km*mol^-1)
0; 138.0557; 0.001408802690936; 140.53474254321
1.02; 142.06286; 0.001449694141206; 285.14860015078
2.04; 153.85152; 0.001569992657895; 441.76281134533
3.05; 172.7606; 0.001762952186456; 617.6256437488
4.07; 197.80321; 0.002018501912806; 818.98077812198
5.09; 227.80852; 0.002324693989412; 1050.8800251585
6.11; 261.56749; 0.002669190651116; 1317.14444166
7.13; 297.94831; 0.003040442233734; 1620.4429657566
8.14; 335.95908; 0.003428326798157; 1962.4348074071
9.16; 374.75499; 0.00382422339935; 2343.9192125978
10.18; 413.60929; 0.004220715846923; 2764.9556188867
11.2; 451.88194; 0.004611272791035; 3224.9519321278
12.22; 489.02133; 0.004990265274298; 3722.7545389102
13.23; 524.61867; 0.005353521759776; 4256.7937079205
14.25; 558.50659; 0.005699334304178; 4825.3293137647
15.27; 590.86293; 0.006029517692918; 5426.8022751517
16.29; 622.26261; 0.006349938752523; 6060.2387588783
17.31; 653.62477; 0.006669976935673; 6725.6005729794
18.32; 686.03324; 0.00700069229002; 7423.9528080789
19.34; 720.45684; 0.00735197123259; 8157.3467784137
20.36; 757.44444; 0.007729414760175; 8928.3925310112
21.38; 796.89676; 0.008132009760451; 9739.5990476049
22.4; 838.00755; 0.00855152877762; 10592.654571365
23.41; 879.41895; 0.008974115398494; 11487.865113787
24.43; 919.56389; 0.009383778306287; 12423.941473352
25.45; 957.09813; 0.009766800074416; 13398.226066134
26.47; 991.28498; 0.010115663078802; 14407.311401173
27.48; 1022.2049; 0.010431188381267; 15447.871831024
28.5; 1050.7194; 0.010722167343604; 16517.45883805
29.52; 1078.2065; 0.011002662103661; 17615.026551282
30.54; 1106.1638; 0.011287955064917; 18741.053610038
31.56; 1135.8222; 0.011590607065007; 19897.271629908
32.57; 1167.8989; 0.011917936840427; 21086.142277591
33.59; 1202.5554; 0.012271592433484; 22310.291778503
34.61; 1239.5381; 0.012648985958547; 23572.088062473
35.63; 1278.4008; 0.013045564124729; 24873.444937083
36.65; 1318.6826; 0.013456623633578; 26215.806920048
37.66; 1359.9419; 0.013877658135349; 27600.169090615
38.68; 1401.6293; 0.014303061224813; 29026.967226758
39.7; 1442.8714; 0.014723920207526; 30495.748093699
40.72; 1482.3029; 0.015126302748107; 32004.668508808
41.74; 1518.0845; 0.015491439532506; 33550.012992302
42.75; 1548.1817; 0.01579856930947; 35125.995127233
43.77; 1570.8693; 0.016030087109394; 36725.072249496
44.79; 1585.317; 0.016177520055935; 38338.856521516
45.81; 1592.0507; 0.01624623474631; 39959.495466264
46.83; 1593.0977; 0.016256918958678; 41581.200158774
47.84; 1591.7157; 0.016242816206536; 43201.498049893
48.86; 1591.7456; 0.016243121323966; 44821.826407051
49.88; 1596.7571; 0.016294261658524; 46447.256236697
50.9; 1609.2356; 0.016421599713953; 48085.388600775
51.92; 1630.0494; 0.016633996141254; 49744.708571702
52.93; 1658.3456; 0.01692274744021; 51432.832831516
53.95; 1691.8824; 0.017264976946745; 53155.096091785
54.97; 1727.6729; 0.017630204552052; 54913.792553015
55.99; 1762.7286; 0.017987933819968; 56708.174187255
57.01; 1794.6862; 0.018314048227963; 58535.087251119
58.02; 1822.1692; 0.018594501149175; 60389.976841091
59.04; 1844.844; 0.018825888330266; 62267.948433388
60.06; 1863.235; 0.019013561061554; 64164.64121274
61.08; 1878.425; 0.019168568879959; 66076.796794114
62.1; 1891.7698; 0.019304747177197; 68002.536827906
63.11; 1904.7021; 0.019436716078445; 69941.441407542
64.13; 1918.6311; 0.019578855900865; 71894.525097621
65.15; 1934.8841; 0.019744711205179; 73864.153577714
66.17; 1954.6204; 0.019946112179924; 75853.872829522
67.19; 1978.6775; 0.020191605174535; 77868.081182052
68.2; 2007.3645; 0.02048434442974; 79911.491576694
69.22; 2040.2765; 0.020820198104482; 81988.404985152
70.24; 2076.226; 0.021187048240607; 84101.913457206
71.26; 2113.362; 0.021566006130289; 86253.224818267
72.27; 2149.4866; 0.021934643091233; 88441.309396458
73.29; 2182.4973; 0.022271503959633; 90662.997499504
74.31; 2210.8275; 0.022560602214865; 92913.524464984
75.33; 2233.7403; 0.022794418089884; 95187.375653818
76.35; 2251.38; 0.022974424107943; 97479.183322261
77.36; 2264.5652; 0.023108973751605; 99784.412988128
78.38; 2274.4042; 0.023209376774994; 102099.65831715
79.4; 2281.8791; 0.023285655112176; 104422.51273073
80.42; 2287.5573; 0.023343598851114; 106751.14737233
81.44; 2291.5408; 0.023384248860634; 109083.83697816
82.45; 2293.6695; 0.023405971384863; 111418.69354931
83.47; 2293.8988; 0.023408311298804; 113753.78358196
84.49; 2292.6948; 0.02339602496481; 116087.64796838
85.51; 2291.2802; 0.023381589542828; 118420.07236134
86.53; 2291.6113; 0.023384968284676; 120752.83382267
87.54; 2296.0596; 0.023430361390575; 123090.12336763
88.56; 2306.8778; 0.0235407567547; 125438.42539953
89.58; 2325.6112; 0.023731923539776; 127805.7972974
90.6; 2352.6372; 0.024007712960461; 130200.68049681
91.62; 2386.9817; 0.02435818471946; 132630.52490771
92.63; 2426.4753; 0.024761200965473; 135100.5720279
93.65; 2468.2063; 0.025187048975338; 137613.09957907
94.67; 2509.1424; 0.025604785351571; 140167.29823638
95.69; 2546.7437; 0.025988491439931; 142759.7734096
96.71; 2579.4068; 0.026321805190644; 145385.49826201
97.72; 2606.6323; 0.026599630428298; 148038.93744048
98.74; 2628.8976; 0.026826838827187; 150715.04172405
99.76; 2647.3021; 0.027014649320527; 153409.88104334
100.78; 2663.1087; 0.027175949293034; 156120.81073708
101.8; 2677.3248; 0.027321018855063; 158846.21188578
102.81; 2690.4437; 0.027454891933988; 161584.96750289
103.83; 2702.4047; 0.027576949110811; 164335.89890911
104.85; 2712.7642; 0.027682663626595; 167097.37576137
105.87; 2720.9988; 0.027766694395616; 169867.23509004
106.89; 2726.824; 0.027826138210216; 172643.0242314
107.9; 2730.4032; 0.027862662501436; 175422.45690822
108.92; 2732.3595; 0.027882625753256; 178203.88098375
109.94; 2733.5656; 0.027894933516902; 180986.5328144
110.96; 2734.7703; 0.027907226994113; 183770.41092018
111.98; 2736.1862; 0.02792167568207; 186555.73038881
112.99; 2737.2013; 0.027932034367815; 189342.0831701
114.01; 2736.3551; 0.027923399238392; 192127.57457748
115.03; 2731.6505; 0.027875390694451; 194908.27694275
116.05; 2721.1585; 0.027768324069652; 197678.2988741
117.07; 2703.7592; 0.027590771236553; 200430.60907436
118.08; 2679.7861; 0.027346135428035; 203158.51569547
119.1; 2651.3341; 0.027055794252969; 205857.45936018
120.12; 2622.0732; 0.026757198579924; 208526.61676407
121.14; 2596.5578; 0.026496824222471; 211169.80058935
122.15; 2579.1875; 0.026319567322666; 213795.30214024
123.17; 2573.1098; 0.026257546847491; 216414.61684237
124.19; 2579.3936; 0.026321670489972; 219040.32824258
125.21; 2596.732; 0.026498601863153; 221683.68938247
126.23; 2621.7682; 0.026754086178041; 224352.53628766
127.24; 2649.9375; 0.027041542513721; 227050.05826882
128.26; 2676.5491; 0.027313103149682; 229774.66973522
129.28; 2697.765; 0.027529602845172; 232520.87813695
130.3; 2711.187; 0.027666568937248; 235280.74954229
131.32; 2715.9234; 0.027714901987352; 238045.44236204
132.33; 2712.2072; 0.027676979666434; 240806.35220681
133.35; 2700.7974; 0.027560547263114; 243555.64744299
134.37; 2682.4556; 0.027373376597965; 246286.27150462
135.39; 2657.7225; 0.027120985296228; 248991.71834447
136.41; 2627.064; 0.026808127679338; 251665.95614405
137.42; 2591.2696; 0.026442860276106; 254303.75682298
138.44; 2551.8611; 0.026040712441241; 256901.44131281
139.46; 2511.2507; 0.025626299702035; 259457.78619805
140.48; 2472.4932; 0.025230795059388; 261974.67762664
141.5; 2438.6525; 0.024885464376025; 264457.12059921
142.51; 2411.983; 0.024613312893935; 266912.41518304
143.53; 2393.2269; 0.024421914464523; 269348.61684936
144.55; 2381.3042; 0.02430024812374; 271772.68175436
145.57; 2373.5392; 0.02422100943316; 274188.84225931
146.59; 2366.3677; 0.024147827170507; 276597.70244811
147.6; 2356.2941; 0.024045030148817; 278996.30819513
148.62; 2340.7823; 0.02388673849131; 281379.12352733
149.64; 2318.7974; 0.023662391461235; 283739.55917392
150.66; 2290.8599; 0.023377300550986; 286071.5556871
151.68; 2258.6527; 0.023048639075744; 288370.76664012
152.69; 2224.3761; 0.022698860208837; 290635.08547489
153.71; 2190.1093; 0.022349181346974; 292864.52220031
154.73; 2157.3927; 0.022015321650356; 295060.6548913
155.75; 2127.1236; 0.021706437703281; 297225.97496819
156.77; 2099.7133; 0.021426726656223; 299363.39246871
157.78; 2075.3499; 0.021178107993753; 301476.00910719
158.8; 2054.189; 0.020962169551062; 303567.08486253
159.82; 2036.3519; 0.020780149145686; 305640.0031823
160.84; 2021.7254; 0.020630891617319; 307698.03241713
161.86; 2009.6661; 0.020507831328676; 309743.78576214
162.87; 1998.7715; 0.02039665633339; 311778.44887169
163.89; 1986.8717; 0.020275223677864; 313800.9985391
164.91; 1971.3126; 0.02011644934295; 315807.70973799
165.93; 1949.4917; 0.019893775866675; 317792.20816883
166.94; 1919.5061; 0.019587784922662; 319746.18250465
167.96; 1880.7196; 0.019191984346721; 321660.67390792
168.98; 1834.0687; 0.018715930743323; 323527.67670418
170; 1781.9974; 0.018184564145924; 325341.67313845
171.02; 1728.018; 0.017633726158249; 327100.7209362
172.03; 1675.9985; 0.017102888158941; 328806.81513724
173.05; 1629.3519; 0.016626878435307; 330465.42503896
174.07; 1590.3311; 0.016228686922444; 332084.31350384
175.09; 1559.6058; 0.015915147638518; 333671.9249035
176.11; 1536.223; 0.015676535603219; 335235.73364041
177.12; 1517.9588; 0.015490156814746; 336780.95021464
178.14; 1501.9629; 0.015326925112151; 338309.88359887
179.16; 1485.522; 0.015159152364185; 339822.0808449
180.18; 1466.7345; 0.014967433510447; 341315.15323761
181.2; 1444.9119; 0.014744742686358; 342786.01117164
182.21; 1420.6019; 0.014496668949333; 344232.12264821
183.23; 1395.2414; 0.014237875283852; 345652.41814364
184.25; 1370.5598; 0.013986009518827; 347047.5889051
185.27; 1347.936; 0.01375514277215; 348419.72957992
186.29; 1327.9186; 0.013550873285374; 349771.49340927
187.3; 1310.0669; 0.013368703892891; 351105.08500678
188.32; 1293.1508; 0.013196081920744; 352421.45676611
189.34; 1275.6228; 0.013017215756097; 353719.98569953
190.36; 1256.1791; 0.012818800646241; 354998.72181238
191.38; 1234.2035; 0.012594548518912; 356255.08775602
192.39; 1209.9389; 0.01234693807056; 357486.75333316
193.41; 1184.3458; 0.012085770815971; 358692.36621054
194.43; 1158.7312; 0.01182438416256; 359871.90455744
195.45; 1134.3161; 0.01157523792246; 361026.58942827
196.47; 1111.9243; 0.011346738642134; 362158.48039895
197.48; 1091.9114; 0.011142515076041; 363269.99903908
198.5; 1074.3412; 0.010963218277428; 364363.63200607
199.52; 1059.3054; 0.010809784007779; 365441.9591955
200.54; 1047.2176; 0.010686432888141; 366507.98154963
201.56; 1038.9265; 0.010601825559426; 367565.56393669
202.57; 1035.5715; 0.010567589138705; 368619.73107593
203.59; 1038.2188; 0.010594603766596; 369676.59302014
204.61; 1047.4144; 0.0106884411527; 370742.81567654
205.63; 1062.8329; 0.010845780721369; 371824.73365472
206.65; 1083.169; 0.011053302412998; 372927.35298977
207.66; 1106.3309; 0.011289660252966; 374053.55014234
208.68; 1129.8804; 0.011529973394474; 375203.71960611
209.7; 1151.5806; 0.011751415175972; 376375.9789374
210.72; 1169.8772; 0.011938124593366; 377566.86344034
211.74; 1184.1706; 0.012083982970692; 378772.29799488
212.75; 1194.8154; 0.012192608857812; 379988.56853131
213.77; 1202.8769; 0.012274873211207; 381213.04529859
214.79; 1209.7462; 0.012344971644845; 382444.51476945
215.81; 1216.7508; 0.012416450760369; 383683.11453793
216.82; 1224.8795; 0.012499400862637; 384929.98905512
217.84; 1234.6978; 0.012599592650882; 386186.85812539
218.86; 1246.4586; 0.012719606867518; 387455.69915209
219.88; 1260.3608; 0.012861473206756; 388738.69201033
220.9; 1276.8591; 0.013029831698552; 390038.47950858
221.91; 1296.9129; 0.013234472632635; 391358.6808635
222.93; 1322.0661; 0.013491150885294; 392704.48705999
223.95; 1354.2866; 0.013819948081667; 394083.09239754
224.97; 1395.549; 0.014241014217687; 395503.70105458
225.99; 1447.2206; 0.014768302037928; 396976.90914397
227; 1509.3908; 0.015402723833305; 398513.40387197
228.02; 1580.3386; 0.016126717493516; 400122.12038182
229.04; 1656.3423; 0.016902304572362; 401808.20533337
230.06; 1731.9812; 0.017674169014464; 403571.28744125
231.08; 1800.9565; 0.018378034108394; 405404.5834772
232.09; 1857.3004; 0.018953000864115; 407295.23509825
233.11; 1896.6939; 0.019354995630035; 409225.98767835
234.13; 1917.533; 0.019567650233624; 411177.95349854
235.15; 1921.4008; 0.019607119571347; 413133.85656068
236.17; 1912.7486; 0.019518827362895; 415080.95204934
237.18; 1897.8035; 0.019366318650134; 417012.8341667
238.2; 1882.9619; 0.019214866113094; 418929.60817847
239.22; 1873.0989; 0.019114218179393; 420836.34203884
240.24; 1870.2751; 0.019085402440248; 422740.20137871
241.26; 1873.2182; 0.019115435587736; 424647.05666956
242.27; 1877.7338; 0.019161515462969; 426558.50860202
243.29; 1877.924; 0.019163456377193; 428470.15418162
244.31; 1867.8545; 0.019060701194347; 430371.54946011
245.33; 1843.1839; 0.018808947679882; 432247.8311402
246.35; 1802.2984; 0.018391727656223; 434082.49312205
247.36; 1746.6589; 0.017823949018163; 435860.5165378
248.38; 1680.315; 0.017146936299042; 437571.00474589
249.4; 1608.7834; 0.016416985195488; 439208.67684439
250.42; 1537.6573; 0.01569117205575; 440773.94560783
251.44; 1471.3562; 0.015014596093352; 442271.72276935
252.45; 1412.3439; 0.014412399392757; 443709.42790741
253.47; 1360.97; 0.013888149480846; 445094.83665269
254.49; 1315.8959; 0.013428186484957; 446434.36193043
255.51; 1274.9001; 0.013009840894322; 447732.15520273
256.53; 1235.7792; 0.012610627901365; 448990.12510032
257.54; 1197.0738; 0.012215654918186; 450208.69460689
258.56; 1158.4377; 0.011821389113535; 451387.93418259
259.58; 1120.6006; 0.011435276781359; 452528.65726716
260.6; 1085.0011; 0.011071998253953; 453633.14155982
261.61; 1053.2477; 0.01074796762453; 454705.3022801
262.63; 1026.5946; 0.010475983497821; 455750.33125002
263.65; 1005.5808; 0.010261546151251; 456773.969141
264.67; 989.91303; 0.010101662882853; 457781.65789165
265.69; 978.58438; 0.009986058582526; 458777.81456678
266.7; 970.15712; 0.009900061795974; 459765.39265112
267.72; 963.09958; 0.009828042449121; 460745.78646036
268.74; 956.07445; 0.009756353833235; 461719.02899868
269.76; 948.1114; 0.009675094122349; 462684.16549272
270.78; 938.64865; 0.009578530578333; 463639.66931725
271.79; 927.4757; 0.009464515133656; 464583.79955996
272.81; 914.63596; 0.009333490769846; 465514.85949579
273.83; 900.34817; 0.009187689640305; 466431.37508468
274.85; 884.98158; 0.009030879792233; 467332.24814444
275.87; 869.08399; 0.008868651303504; 468216.93814804
276.88; 853.43043; 0.00870891304242; 469085.69349759
277.9; 839.04459; 0.008562111352208; 469939.80468095
278.92; 827.15284; 0.008440760843682; 470781.8105825
279.94; 819.05598; 0.008358135655761; 471615.57422732
280.96; 815.93699; 0.008326307621822; 472446.16287067
281.97; 818.64992; 0.008353991977371; 473279.51316443
282.99; 827.54476; 0.00844476022908; 474121.91801711
284.01; 842.37304; 0.008596076840896; 474979.41741721
285.03; 862.29434; 0.008799365665964; 475857.1958502
286.05; 885.97471; 0.009041014282996; 476759.0798742
287.06; 911.74637; 0.009304003670308; 477687.19833628
288.08; 937.79103; 0.00956977891242; 478641.82913413
289.1; 962.31551; 0.009820041331268; 479621.42480004
290.12; 983.7034; 0.010038296115283; 480622.79241445
291.14; 1000.6394; 0.010211121158897; 481641.40009618
292.15; 1012.208; 0.010329174052116; 482671.78411454
293.17; 1017.9642; 0.010387913749568; 483708.02771233
294.19; 1017.963; 0.010387901504052; 484744.2701403
295.21; 1012.7302; 0.010334502892325; 485775.18577586
296.23; 1003.1601; 0.010236843884891; 486796.35942437
297.24; 990.3448; 0.010106068921415; 487804.48769494
298.26; 975.36292; 0.009953184883601; 488797.36506165
299.28; 959.07652; 0.009786988745769; 489773.6635761
300.3; 941.99389; 0.009612667402194; 490732.5727092
301.32; 924.24054; 0.009431501631761; 491673.40969704
302.33; 905.65014; 0.009241794103962; 492595.32245742
303.35; 885.94731; 0.009040734677056; 493497.17858646
304.37; 864.96154; 0.008826583365322; 494377.67210706
305.39; 842.79871; 0.00860042063142; 495235.60483028
306.41; 819.90988; 0.008366849360575; 496070.2377048
307.42; 797.03168; 0.00813338656459; 496881.58155684
308.44; 775.01717; 0.007908737376417; 497670.51559306
309.46; 754.61293; 0.007700520343592; 498438.67899657
310.48; 736.25559; 0.007513191099016; 499188.15541656
311.49; 719.95268; 0.007346826483299; 499921.03617715
312.51; 705.28315; 0.007197129851152; 500638.98399427
313.53; 691.51378; 0.007056618988446; 501342.91518427
314.55; 677.79324; 0.006916606416179; 502032.87945267
315.57; 663.36678; 0.006769390215264; 502708.15821419
316.58; 647.75512; 0.006610079526766; 503367.54497205
317.6; 630.8578; 0.006437649196939; 504009.73099139
318.62; 612.96622; 0.006255072845154; 504633.70414985
319.64; 594.69388; 0.006068610991267; 505239.07685772
320.66; 576.84721; 0.005886492927904; 505826.28242318
321.67; 560.26585; 0.005717286842335; 506396.60888527
322.69; 545.66122; 0.00556825248849; 506952.06846266
323.71; 533.47865; 0.005443934279257; 507495.12670855
324.73; 523.80552; 0.005345223892262; 508028.33812726
325.75; 516.34391; 0.005269081174166; 508553.95394724
326.76; 510.45971; 0.005209035288382; 509073.57990584
327.78; 505.30806; 0.005156464779647; 509587.96170636
328.8; 500.01739; 0.005102475627929; 510096.95783676
329.82; 493.89572; 0.005040006456652; 510599.72236471
330.84; 486.60954; 0.004965653930892; 511095.06987921
331.85; 478.28535; 0.004880708932084; 511581.9437233
332.87; 469.49887; 0.004791046450435; 512059.87331461
333.89; 461.14636; 0.004705812457459; 512529.30041362
334.91; 454.22611; 0.004635194099637; 512991.68299013
335.93; 449.58654; 0.004587849160596; 513449.34268779
336.94; 447.70932; 0.004568692888255; 513905.09145983
337.96; 448.587; 0.00457764925837; 514361.73366485
338.98; 451.72803; 0.004609702201612; 514821.57330152
340; 456.28586; 0.004656213016948; 515286.05261972
341.02; 461.2747; 0.004707122115353; 515755.61036447
342.03; 465.81302; 0.004753433839015; 516229.7879161
343.05; 469.33176; 0.00478934116034; 516707.54739186
344.07; 471.69683; 0.004813475745006; 517187.71440664
345.09; 473.21927; 0.004829011630658; 517669.43120111
346.11; 474.55466; 0.004842638746565; 518152.50736266
347.12; 476.5187; 0.00486268098196; 518637.58283385
348.14; 479.86457; 0.004896824234716; 519126.06426239
349.16; 485.07674; 0.004950012325622; 519619.85145515
350.18; 492.23442; 0.005023053560753; 520120.9248588
351.2; 500.98491; 0.00511234877898; 520630.9058823
352.21; 510.64266; 0.005210902219282; 521150.71807552
353.23; 520.39743; 0.005310445709522; 521680.4602003
354.25; 529.58071; 0.005404157374999; 522219.55050794
355.27; 537.91427; 0.005489197990874; 522767.12402468
356.28; 545.65917; 0.005568231569068; 523322.58151687
357.3; 553.60479; 0.005649313413839; 523886.12730466
358.32; 562.88373; 0.005744001251002; 524459.11865248
359.34; 574.65719; 0.005864144657827; 525044.09487028
360.36; 589.7663; 0.006018327026434; 525644.4515186
361.37; 608.46693; 0.006209159406887; 526263.84459191
362.39; 630.34485; 0.006432414749246; 526905.50844728
363.41; 654.44903; 0.006678388176253; 527571.70931706
364.43; 679.60023; 0.006935046019719; 528263.51302913
365.45; 704.76309; 0.007191822848779; 528980.93144763
366.46; 729.33945; 0.007442614682085; 529723.36753465
367.48; 753.26643; 0.007686779854621; 530490.16025369
368.5; 776.87735; 0.007927719762437; 531280.98786942
369.52; 800.57972; 0.008169592880588; 532095.94347934
370.54; 824.48352; 0.00841352151058; 532935.2321213
371.55; 848.13988; 0.008654925115254; 533798.60191834
372.57; 870.51159; 0.008883219385239; 534684.74515024
373.59; 890.2044; 0.009084176562089; 535590.93481518
374.61; 905.87964; 0.009244136058822; 536513.08119908
375.63; 916.68843; 0.009354435397696; 537446.23046423
376.64; 922.55179; 0.009414268619692; 538385.34837266
377.66; 924.16798; 0.00943076118625; 539326.11149743
378.68; 922.73717; 0.009416160347761; 540265.41811578
